,Time (s),Signal (V)
0,1643746665.493807,0.0036251106295968507
1,1643746665.502301,0.0036251106295968507
2,1643746665.505469,0.0038751182592242197
3,1643746665.5083923,0.0038751182592242197
4,1643746665.5112793,0.0036251106295968507
5,1643746665.5142133,0.003750114444410535
6,1643746665.5170603,0.003500106814783166
7,1643746665.519899,0.0036251106295968507
8,1643746665.5227342,0.0036251106295968507
9,1643746665.5255795,0.003750114444410535
10,1643746665.5284126,0.0036251106295968507
11,1643746665.5312443,0.003500106814783166
12,1643746665.5340865,0.003500106814783166
13,1643746665.5369225,0.0036251106295968507
14,1643746665.5397542,0.0036251106295968507
15,1643746665.542593,0.003500106814783166
16,1643746665.5454435,0.003250099185155797
17,1643746665.5483806,0.0033751029999694814
18,1643746665.551629,0.003500106814783166
19,1643746665.5545812,0.0036251106295968507
20,1643746665.557427,0.0038751182592242197
21,1643746665.5602665,0.0038751182592242197
22,1643746665.5631087,0.0038751182592242197
23,1643746665.5659559,0.0038751182592242197
24,1643746665.568793,0.003750114444410535
25,1643746665.5716305,0.003750114444410535
26,1643746665.5744815,0.0036251106295968507
27,1643746665.5773215,0.0036251106295968507
28,1643746665.5801592,0.0036251106295968507
29,1643746665.5830364,0.003750114444410535
30,1643746665.5858784,0.003750114444410535
31,1643746665.5887167,0.003750114444410535
32,1643746665.5915525,0.0038751182592242197
33,1643746665.594398,0.0036251106295968507
34,1643746665.5972364,0.0033751029999694814
35,1643746665.6000724,0.0033751029999694814
36,1643746665.602914,0.0033751029999694814
37,1643746665.605752,0.0036251106295968507
38,1643746665.6085901,0.003750114444410535
39,1643746665.6114292,0.0036251106295968507
40,1643746665.6142638,0.0038751182592242197
41,1643746665.6170971,0.004000122074037904
42,1643746665.6199312,0.0038751182592242197
43,1643746665.6228201,0.0038751182592242197
44,1643746665.6256647,0.003750114444410535
45,1643746665.6285024,0.003500106814783166
46,1643746665.6313424,0.003500106814783166
47,1643746665.6341977,0.003500106814783166
48,1643746665.6370387,0.0036251106295968507
49,1643746665.6398735,0.0036251106295968507
50,1643746665.6427073,0.003750114444410535
51,1643746665.6455455,0.0036251106295968507
52,1643746665.6483786,0.003750114444410535
53,1643746665.651211,0.003500106814783166
54,1643746665.6540465,0.0033751029999694814
55,1643746665.6568787,0.003250099185155797
56,1643746665.6597104,0.003250099185155797
57,1643746665.6625426,0.003500106814783166
58,1643746665.6653764,0.0036251106295968507
59,1643746665.6682096,0.003750114444410535
60,1643746665.6710422,0.0038751182592242197
61,1643746665.6738763,0.004000122074037904
62,1643746665.6777208,0.0038751182592242197
63,1643746665.6807327,0.003750114444410535
64,1643746665.6836395,0.003750114444410535
65,1643746665.6864862,0.0036251106295968507
66,1643746665.6893246,0.003750114444410535
67,1643746665.6921608,0.0036251106295968507
68,1643746665.695002,0.003500106814783166
69,1643746665.6978338,0.0036251106295968507
70,1643746665.7006679,0.0036251106295968507
71,1643746665.7035096,0.0036251106295968507
72,1643746665.706341,0.0036251106295968507
73,1643746665.709176,0.003250099185155797
74,1643746665.7120128,0.0031250953703421125
75,1643746665.7148998,0.003250099185155797
76,1643746665.718108,0.0036251106295968507
77,1643746665.7210662,0.003750114444410535
78,1643746665.7239094,0.003750114444410535
79,1643746665.7267482,0.003750114444410535
80,1643746665.7295945,0.003750114444410535
81,1643746665.732438,0.004000122074037904
82,1643746665.7352824,0.0038751182592242197
83,1643746665.73812,0.0036251106295968507
84,1643746665.740957,0.0036251106295968507
85,1643746665.743796,0.003500106814783166
86,1643746665.7466333,0.003750114444410535
87,1643746665.7494705,0.003750114444410535
88,1643746665.7523081,0.003750114444410535
89,1643746665.7551477,0.003750114444410535
90,1643746665.7579849,0.003750114444410535
91,1643746665.7608232,0.003500106814783166
92,1643746665.7636578,0.0033751029999694814
93,1643746665.7664936,0.003250099185155797
94,1643746665.7693284,0.003250099185155797
95,1643746665.7721627,0.003500106814783166
96,1643746665.7750018,0.0036251106295968507
97,1643746665.7778387,0.003750114444410535
98,1643746665.780674,0.0038751182592242197
99,1643746665.783514,0.004000122074037904
100,1643746665.786348,0.0038751182592242197
101,1643746665.789187,0.003750114444410535
102,1643746665.7920208,0.003500106814783166
103,1643746665.79486,0.0033751029999694814
104,1643746665.7976968,0.0033751029999694814
105,1643746665.800534,0.003500106814783166
106,1643746665.8034272,0.003500106814783166
107,1643746665.8062654,0.003500106814783166
108,1643746665.8091002,0.0036251106295968507
109,1643746665.8119335,0.003500106814783166
110,1643746665.814767,0.003500106814783166
111,1643746665.8175995,0.0036251106295968507
112,1643746665.8204305,0.003250099185155797
113,1643746665.8232646,0.0031250953703421125
114,1643746665.826095,0.003250099185155797
115,1643746665.8289268,0.0033751029999694814
116,1643746665.8317592,0.0036251106295968507
117,1643746665.8345928,0.003750114444410535
118,1643746665.8374217,0.0038751182592242197
119,1643746665.8402526,0.004000122074037904
120,1643746665.8437724,0.003500106814783166
121,1643746665.846724,0.003500106814783166
122,1643746665.8496928,0.0033751029999694814
123,1643746665.8525844,0.003500106814783166
124,1643746665.855422,0.003500106814783166
125,1643746665.8582501,0.0036251106295968507
126,1643746665.8610802,0.003500106814783166
127,1643746665.8639302,0.003500106814783166
128,1643746665.8667881,0.0036251106295968507
129,1643746665.8696167,0.003500106814783166
130,1643746665.8724425,0.003500106814783166
131,1643746665.8752735,0.003250099185155797
132,1643746665.878156,0.0030000915555284282
133,1643746665.880988,0.0031250953703421125
134,1643746665.8838263,0.003500106814783166
135,1643746665.8866603,0.0036251106295968507
136,1643746665.889492,0.0038751182592242197
137,1643746665.8923266,0.0038751182592242197
138,1643746665.895161,0.003750114444410535
139,1643746665.8979983,0.004000122074037904
140,1643746665.9008303,0.003750114444410535
141,1643746665.9036634,0.003750114444410535
142,1643746665.9064956,0.0036251106295968507
143,1643746665.909328,0.0036251106295968507
144,1643746665.9121625,0.003750114444410535
145,1643746665.9149957,0.004000122074037904
146,1643746665.917827,0.004125125888851589
147,1643746665.9206645,0.004000122074037904
148,1643746665.9234993,0.004000122074037904
149,1643746665.926337,0.0038751182592242197
150,1643746665.9291701,0.0036251106295968507
151,1643746665.9320068,0.003500106814783166
152,1643746665.9348407,0.0036251106295968507
153,1643746665.9376729,0.0036251106295968507
154,1643746665.9405117,0.0038751182592242197
155,1643746665.943347,0.004000122074037904
156,1643746665.9461818,0.004125125888851589
157,1643746665.9490154,0.004250129703665274
158,1643746665.9518523,0.004250129703665274
159,1643746665.9546854,0.004125125888851589
160,1643746665.9575195,0.0038751182592242197
161,1643746665.960356,0.0036251106295968507
162,1643746665.9631877,0.0036251106295968507
163,1643746665.9660203,0.003750114444410535
164,1643746665.9688525,0.0038751182592242197
165,1643746665.9716916,0.004000122074037904
166,1643746665.9745233,0.004000122074037904
167,1643746665.9773545,0.004000122074037904
168,1643746665.9802256,0.004000122074037904
169,1643746665.9830632,0.0038751182592242197
170,1643746665.9858954,0.003750114444410535
171,1643746665.9887278,0.0036251106295968507
172,1643746665.9915655,0.0036251106295968507
173,1643746665.9943988,0.0036251106295968507
174,1643746665.9972367,0.003750114444410535
175,1643746666.0000708,0.004000122074037904
176,1643746666.0029068,0.004125125888851589
177,1643746666.0057385,0.004000122074037904
178,1643746666.0085711,0.004125125888851589
179,1643746666.0114067,0.0038751182592242197
180,1643746666.0142395,0.0038751182592242197
181,1643746666.0170712,0.003750114444410535
182,1643746666.0199032,0.0036251106295968507
183,1643746666.0227408,0.003750114444410535
184,1643746666.0255752,0.003750114444410535
185,1643746666.0284069,0.0038751182592242197
186,1643746666.0312681,0.003750114444410535
187,1643746666.0341046,0.003750114444410535
188,1643746666.0369494,0.003750114444410535
189,1643746666.0397878,0.0036251106295968507
190,1643746666.0426235,0.003250099185155797
191,1643746666.0454652,0.003250099185155797
192,1643746666.048303,0.003500106814783166
193,1643746666.0511377,0.003500106814783166
194,1643746666.0539722,0.003750114444410535
195,1643746666.0568051,0.004000122074037904
196,1643746666.0596387,0.004000122074037904
197,1643746666.0624714,0.0038751182592242197
198,1643746666.0653033,0.004000122074037904
199,1643746666.0681345,0.0038751182592242197
200,1643746666.070966,0.0036251106295968507
201,1643746666.0739653,0.0036251106295968507
202,1643746666.0768123,0.003750114444410535
203,1643746666.079651,0.0038751182592242197
204,1643746666.082484,0.004250129703665274
205,1643746666.085317,0.004125125888851589
206,1643746666.0881546,0.004250129703665274
207,1643746666.091051,0.004250129703665274
208,1643746666.0938888,0.0038751182592242197
209,1643746666.0967157,0.003750114444410535
210,1643746666.0995402,0.0036251106295968507
211,1643746666.1023693,0.003500106814783166
212,1643746666.105211,0.0038751182592242197
213,1643746666.1080444,0.004000122074037904
214,1643746666.1108758,0.004000122074037904
215,1643746666.1137106,0.004250129703665274
216,1643746666.1165426,0.004250129703665274
217,1643746666.1193743,0.004250129703665274
218,1643746666.122207,0.0043751335184789575
219,1643746666.1250381,0.004000122074037904
220,1643746666.1278691,0.0038751182592242197
221,1643746666.130701,0.0038751182592242197
222,1643746666.133533,0.004125125888851589
223,1643746666.136367,0.004125125888851589
224,1643746666.1391995,0.004125125888851589
225,1643746666.1420357,0.004250129703665274
226,1643746666.1448731,0.004000122074037904
227,1643746666.1477044,0.004125125888851589
228,1643746666.1505349,0.004000122074037904
229,1643746666.1533675,0.0036251106295968507
230,1643746666.1561997,0.003750114444410535
231,1643746666.1590326,0.003750114444410535
232,1643746666.1618657,0.003750114444410535
233,1643746666.1647024,0.004125125888851589
234,1643746666.167535,0.004125125888851589
235,1643746666.1703677,0.004000122074037904
236,1643746666.1731987,0.004125125888851589
237,1643746666.1761873,0.0038751182592242197
238,1643746666.1790276,0.003750114444410535
239,1643746666.1818655,0.003750114444410535
240,1643746666.184701,0.003750114444410535
241,1643746666.1875374,0.0038751182592242197
242,1643746666.1903703,0.0038751182592242197
243,1643746666.193207,0.004000122074037904
244,1643746666.196041,0.004000122074037904
245,1643746666.1988716,0.004000122074037904
246,1643746666.2017024,0.0038751182592242197
247,1643746666.2045364,0.004000122074037904
248,1643746666.2073684,0.0038751182592242197
249,1643746666.2102063,0.0036251106295968507
250,1643746666.21304,0.003750114444410535
251,1643746666.2158723,0.0038751182592242197
252,1643746666.2187042,0.004125125888851589
253,1643746666.2215369,0.004250129703665274
254,1643746666.2243679,0.004250129703665274
255,1643746666.2271993,0.0038751182592242197
256,1643746666.23003,0.004125125888851589
257,1643746666.232871,0.004125125888851589
258,1643746666.235701,0.003750114444410535
259,1643746666.2385662,0.0038751182592242197
260,1643746666.2413988,0.0038751182592242197
261,1643746666.2442343,0.0038751182592242197
262,1643746666.2470667,0.004000122074037904
263,1643746666.2499,0.004125125888851589
264,1643746666.2527382,0.0038751182592242197
265,1643746666.2555757,0.0038751182592242197
266,1643746666.2584088,0.0038751182592242197
267,1643746666.2612424,0.0036251106295968507
268,1643746666.2640748,0.0036251106295968507
269,1643746666.2669055,0.003500106814783166
270,1643746666.269739,0.0036251106295968507
271,1643746666.2725728,0.0036251106295968507
272,1643746666.2754068,0.0038751182592242197
273,1643746666.2782388,0.003750114444410535
274,1643746666.2810721,0.003750114444410535
275,1643746666.283906,0.003750114444410535
276,1643746666.2867377,0.0036251106295968507
277,1643746666.2895694,0.0036251106295968507
278,1643746666.2924032,0.0033751029999694814
279,1643746666.2952378,0.0033751029999694814
280,1643746666.2980692,0.003750114444410535
281,1643746666.300905,0.0038751182592242197
282,1643746666.3037388,0.0038751182592242197
283,1643746666.3065724,0.0038751182592242197
284,1643746666.3094044,0.0036251106295968507
285,1643746666.312236,0.003500106814783166
286,1643746666.315067,0.0036251106295968507
287,1643746666.3178995,0.0033751029999694814
288,1643746666.3207314,0.0033751029999694814
289,1643746666.3235636,0.003250099185155797
290,1643746666.3263962,0.0033751029999694814
291,1643746666.3292284,0.0033751029999694814
292,1643746666.3320622,0.003500106814783166
293,1643746666.3348856,0.0036251106295968507
294,1643746666.33771,0.0036251106295968507
295,1643746666.3405383,0.003500106814783166
296,1643746666.3433826,0.0036251106295968507
297,1643746666.3462143,0.003250099185155797
298,1643746666.3490477,0.0033751029999694814
299,1643746666.3518853,0.003250099185155797
300,1643746666.35472,0.0033751029999694814
301,1643746666.3575523,0.003500106814783166
302,1643746666.360384,0.0033751029999694814
303,1643746666.3632147,0.0033751029999694814
304,1643746666.3660457,0.0033751029999694814
305,1643746666.368876,0.003250099185155797
306,1643746666.3717086,0.0033751029999694814
307,1643746666.3745396,0.0031250953703421125
308,1643746666.377399,0.0030000915555284282
309,1643746666.3802319,0.0031250953703421125
310,1643746666.383068,0.003250099185155797
311,1643746666.3859031,0.0033751029999694814
312,1643746666.3887367,0.003500106814783166
313,1643746666.3915925,0.003750114444410535
314,1643746666.3944256,0.0036251106295968507
315,1643746666.3972588,0.0036251106295968507
316,1643746666.4000905,0.0036251106295968507
317,1643746666.402925,0.0033751029999694814
318,1643746666.4057581,0.0033751029999694814
319,1643746666.4085898,0.0033751029999694814
320,1643746666.4114227,0.0033751029999694814
321,1643746666.4142628,0.003250099185155797
322,1643746666.4170966,0.003500106814783166
323,1643746666.4199293,0.0033751029999694814
324,1643746666.4227614,0.0033751029999694814
325,1643746666.4255953,0.0033751029999694814
326,1643746666.4284275,0.0031250953703421125
327,1643746666.4312599,0.0030000915555284282
328,1643746666.4340909,0.0030000915555284282
329,1643746666.4369254,0.0030000915555284282
330,1643746666.4397576,0.0033751029999694814
331,1643746666.4425895,0.0033751029999694814
332,1643746666.44542,0.003500106814783166
333,1643746666.4482505,0.0036251106295968507
334,1643746666.4510813,0.0036251106295968507
335,1643746666.4539137,0.0036251106295968507
336,1643746666.456743,0.003250099185155797
337,1643746666.4595733,0.0031250953703421125
338,1643746666.462404,0.0030000915555284282
339,1643746666.4652383,0.0031250953703421125
340,1643746666.4680753,0.0031250953703421125
341,1643746666.4709103,0.003250099185155797
342,1643746666.473743,0.0031250953703421125
343,1643746666.4765747,0.0031250953703421125
344,1643746666.4794056,0.0030000915555284282
345,1643746666.4822369,0.0030000915555284282
346,1643746666.4850678,0.0030000915555284282
347,1643746666.4879017,0.0028750877407147436
348,1643746666.4907408,0.0028750877407147436
349,1643746666.4935727,0.0028750877407147436
350,1643746666.496403,0.0028750877407147436
351,1643746666.4992342,0.003250099185155797
352,1643746666.5020654,0.003250099185155797
353,1643746666.5049021,0.0031250953703421125
354,1643746666.5077353,0.0031250953703421125
355,1643746666.5105693,0.0031250953703421125
356,1643746666.5134027,0.0030000915555284282
357,1643746666.516239,0.0028750877407147436
358,1643746666.5190718,0.0030000915555284282
359,1643746666.5219045,0.0031250953703421125
360,1643746666.5247478,0.0031250953703421125
361,1643746666.527583,0.0030000915555284282
362,1643746666.530416,0.0030000915555284282
363,1643746666.5332487,0.0030000915555284282
364,1643746666.5360794,0.002750083925901059
365,1643746666.5389116,0.0026250801110873747
366,1643746666.5417423,0.0026250801110873747
367,1643746666.544574,0.00250007629627369
368,1643746666.5474067,0.0026250801110873747
369,1643746666.5502386,0.002750083925901059
370,1643746666.5530708,0.0028750877407147436
371,1643746666.5559025,0.0031250953703421125
372,1643746666.5587308,0.0031250953703421125
373,1643746666.5615625,0.0030000915555284282
374,1643746666.564394,0.0030000915555284282
375,1643746666.5672243,0.0030000915555284282
376,1643746666.5700574,0.002750083925901059
377,1643746666.5728903,0.002750083925901059
378,1643746666.5757253,0.002750083925901059
379,1643746666.5785568,0.002750083925901059
380,1643746666.581392,0.0028750877407147436
381,1643746666.584231,0.002750083925901059
382,1643746666.5870624,0.0030000915555284282
383,1643746666.5898924,0.002750083925901059
384,1643746666.592724,0.002750083925901059
385,1643746666.5955558,0.00250007629627369
386,1643746666.5984201,0.0023750724814600053
387,1643746666.6012526,0.0023750724814600053
388,1643746666.6040587,0.00250007629627369
389,1643746666.606722,0.0028750877407147436
390,1643746666.6093855,0.0028750877407147436
391,1643746666.6120486,0.0028750877407147436
392,1643746666.614716,0.0031250953703421125
393,1643746666.6174107,0.003250099185155797
394,1643746666.620092,0.0031250953703421125
395,1643746666.6227944,0.0030000915555284282
396,1643746666.625464,0.0028750877407147436
397,1643746666.6281273,0.002750083925901059
398,1643746666.6307912,0.0028750877407147436
399,1643746666.6334553,0.0030000915555284282
400,1643746666.6361191,0.0031250953703421125
401,1643746666.6387832,0.0031250953703421125
402,1643746666.6414473,0.0031250953703421125
403,1643746666.6441252,0.002750083925901059
404,1643746666.6468427,0.002750083925901059
405,1643746666.649509,0.002750083925901059
406,1643746666.6521742,0.002750083925901059
407,1643746666.6548414,0.0026250801110873747
408,1643746666.6575048,0.0026250801110873747
409,1643746666.6601982,0.0026250801110873747
410,1643746666.6628647,0.0026250801110873747
411,1643746666.6655285,0.0028750877407147436
412,1643746666.6681988,0.0028750877407147436
413,1643746666.6708636,0.0028750877407147436
414,1643746666.6735287,0.0030000915555284282
415,1643746666.6762009,0.002750083925901059
416,1643746666.678914,0.0026250801110873747
417,1643746666.681582,0.00250007629627369
418,1643746666.6842499,0.0026250801110873747
419,1643746666.6869154,0.00250007629627369
420,1643746666.689581,0.002750083925901059
421,1643746666.6922555,0.002750083925901059
422,1643746666.6949263,0.0023750724814600053
423,1643746666.6975899,0.00250007629627369
424,1643746666.7002537,0.00250007629627369
425,1643746666.702919,0.00250007629627369
426,1643746666.7056093,0.002250068666646321
427,1643746666.708442,0.002000061037018952
428,1643746666.7112763,0.0018750572222052675
429,1643746666.7141135,0.002125064851832637
430,1643746666.716951,0.002250068666646321
431,1643746666.7197864,0.00250007629627369
432,1643746666.7226229,0.002750083925901059
433,1643746666.7254567,0.0026250801110873747
434,1643746666.728675,0.0026250801110873747
435,1643746666.7315202,0.0026250801110873747
436,1643746666.7343698,0.00250007629627369
437,1643746666.7372067,0.002250068666646321
438,1643746666.7400396,0.0023750724814600053
439,1643746666.742877,0.00250007629627369
440,1643746666.745711,0.00250007629627369
441,1643746666.748544,0.0026250801110873747
442,1643746666.7513766,0.002750083925901059
443,1643746666.7542102,0.0028750877407147436
444,1643746666.7570424,0.0028750877407147436
445,1643746666.7598765,0.002750083925901059
446,1643746666.7627106,0.0023750724814600053
447,1643746666.765543,0.0023750724814600053
448,1643746666.7683756,0.00250007629627369
449,1643746666.7712092,0.0026250801110873747
450,1643746666.774048,0.002750083925901059
451,1643746666.776882,0.002750083925901059
452,1643746666.7797143,0.0028750877407147436
453,1643746666.7825468,0.0030000915555284282
