,Time (s),Signal (V)
0,1643895785.8873823,0.047001434369945375
1,1643895785.8950448,0.046751426740318
2,1643895785.897781,0.04662642292550432
3,1643895785.9004922,0.04662642292550432
4,1643895785.9032013,0.046751426740318
5,1643895785.9059098,0.046751426740318
6,1643895785.9086182,0.04687643055513169
7,1643895785.9113252,0.046751426740318
8,1643895785.9140449,0.046751426740318
9,1643895785.9167528,0.04662642292550432
10,1643895785.9194603,0.046751426740318
11,1643895785.9221659,0.04662642292550432
12,1643895785.9248707,0.046751426740318
13,1643895785.9275768,0.046751426740318
14,1643895785.9302816,0.04687643055513169
15,1643895785.9329877,0.04662642292550432
16,1643895785.9356961,0.046751426740318
17,1643895785.9384017,0.046751426740318
18,1643895785.9411056,0.04912649922177801
19,1643895785.9438095,0.054501663258766445
20,1643895785.946513,0.04937650685140538
21,1643895785.9492185,0.04662642292550432
22,1643895785.9519227,0.046751426740318
23,1643895785.9546263,0.04687643055513169
24,1643895785.9573328,0.04687643055513169
25,1643895785.9600437,0.04687643055513169
26,1643895785.962753,0.04687643055513169
27,1643895785.9654624,0.046751426740318
28,1643895785.9681704,0.046751426740318
29,1643895785.9708793,0.046751426740318
30,1643895785.9735868,0.046751426740318
31,1643895785.976296,0.046751426740318
32,1643895785.9790034,0.046751426740318
33,1643895785.9817119,0.046751426740318
34,1643895785.9844193,0.04662642292550432
35,1643895785.987126,0.046751426740318
36,1643895785.9898334,0.046751426740318
37,1643895785.9925401,0.04687643055513169
38,1643895785.9952488,0.046751426740318
39,1643895785.9979563,0.04662642292550432
40,1643895786.0006642,0.046751426740318
41,1643895786.0033715,0.046751426740318
42,1643895786.0060823,0.046751426740318
43,1643895786.008817,0.04687643055513169
44,1643895786.0117598,0.04687643055513169
45,1643895786.0147371,0.04650141911069063
46,1643895786.0177386,0.04662642292550432
47,1643895786.0206885,0.046751426740318
48,1643895786.0236325,0.046751426740318
49,1643895786.026578,0.046751426740318
50,1643895786.0295224,0.046751426740318
51,1643895786.0324657,0.04662642292550432
52,1643895786.035415,0.04687643055513169
53,1643895786.038358,0.046751426740318
54,1643895786.0413,0.04687643055513169
55,1643895786.0442424,0.04662642292550432
56,1643895786.047185,0.046751426740318
57,1643895786.0501285,0.046751426740318
58,1643895786.0530713,0.046751426740318
59,1643895786.0560193,0.04687643055513169
60,1643895786.0589635,0.04687643055513169
61,1643895786.0619051,0.04687643055513169
62,1643895786.0648484,0.046751426740318
63,1643895786.0677924,0.04662642292550432
64,1643895786.0707352,0.046751426740318
65,1643895786.0736768,0.046751426740318
66,1643895786.076624,0.046751426740318
67,1643895786.0795584,0.04687643055513169
68,1643895786.0824943,0.04687643055513169
69,1643895786.085433,0.046751426740318
70,1643895786.08838,0.04687643055513169
71,1643895786.0913234,0.04687643055513169
72,1643895786.094267,0.04687643055513169
73,1643895786.0972166,0.04687643055513169
74,1643895786.1001606,0.04687643055513169
75,1643895786.1031036,0.04687643055513169
76,1643895786.1060903,0.047001434369945375
77,1643895786.1090372,0.04687643055513169
78,1643895786.111983,0.04687643055513169
79,1643895786.1149302,0.046751426740318
80,1643895786.1178746,0.046751426740318
81,1643895786.120817,0.04687643055513169
82,1643895786.1237595,0.047001434369945375
83,1643895786.126708,0.047001434369945375
84,1643895786.1296518,0.04687643055513169
85,1643895786.1325939,0.04687643055513169
86,1643895786.1355412,0.04687643055513169
87,1643895786.1384845,0.04687643055513169
88,1643895786.141427,0.04687643055513169
89,1643895786.1443727,0.04687643055513169
90,1643895786.14732,0.046751426740318
91,1643895786.1502635,0.04687643055513169
92,1643895786.1532063,0.04687643055513169
93,1643895786.156154,0.04687643055513169
94,1643895786.1590981,0.047001434369945375
95,1643895786.1620412,0.04687643055513169
96,1643895786.164988,0.04687643055513169
97,1643895786.1679296,0.04687643055513169
98,1643895786.1708734,0.047001434369945375
99,1643895786.173817,0.047001434369945375
100,1643895786.176763,0.047126438184759055
101,1643895786.1797066,0.047126438184759055
102,1643895786.1826477,0.047001434369945375
103,1643895786.1855943,0.047126438184759055
104,1643895786.1885357,0.047126438184759055
105,1643895786.1914787,0.047126438184759055
106,1643895786.1944199,0.047001434369945375
107,1643895786.1973643,0.047126438184759055
108,1643895786.2003093,0.047001434369945375
109,1643895786.2032523,0.047126438184759055
110,1643895786.206201,0.04725144199957274
111,1643895786.2091444,0.047126438184759055
112,1643895786.2120862,0.047126438184759055
113,1643895786.2150328,0.047001434369945375
114,1643895786.217976,0.047001434369945375
115,1643895786.2209208,0.047126438184759055
116,1643895786.223863,0.04725144199957274
117,1643895786.2268105,0.047126438184759055
118,1643895786.229753,0.047126438184759055
119,1643895786.2326953,0.047126438184759055
120,1643895786.235644,0.047001434369945375
121,1643895786.2385867,0.047001434369945375
122,1643895786.2415283,0.047126438184759055
123,1643895786.2444704,0.047126438184759055
124,1643895786.247446,0.047126438184759055
125,1643895786.25039,0.047126438184759055
126,1643895786.2533317,0.047126438184759055
127,1643895786.256285,0.04725144199957274
128,1643895786.2592297,0.047126438184759055
129,1643895786.262172,0.047126438184759055
130,1643895786.2651196,0.047001434369945375
131,1643895786.2680647,0.047001434369945375
132,1643895786.271008,0.047126438184759055
133,1643895786.2739499,0.04725144199957274
134,1643895786.276897,0.047126438184759055
135,1643895786.279868,0.047126438184759055
136,1643895786.2828116,0.047001434369945375
137,1643895786.285759,0.047126438184759055
138,1643895786.2887,0.047126438184759055
139,1643895786.2916417,0.047126438184759055
140,1643895786.2945836,0.047126438184759055
141,1643895786.2975318,0.04725144199957274
142,1643895786.3004737,0.047126438184759055
143,1643895786.303416,0.04725144199957274
144,1643895786.3063593,0.04725144199957274
145,1643895786.309304,0.047126438184759055
146,1643895786.3122468,0.047001434369945375
147,1643895786.315193,0.047126438184759055
148,1643895786.318135,0.047126438184759055
149,1643895786.32108,0.047126438184759055
150,1643895786.3240216,0.04725144199957274
151,1643895786.326968,0.04725144199957274
152,1643895786.329912,0.04725144199957274
153,1643895786.332854,0.047126438184759055
154,1643895786.335801,0.047126438184759055
155,1643895786.3387449,0.047001434369945375
156,1643895786.3416922,0.04725144199957274
157,1643895786.3446388,0.04725144199957274
158,1643895786.3475854,0.04725144199957274
159,1643895786.35053,0.047126438184759055
160,1643895786.3534732,0.04725144199957274
161,1643895786.3564217,0.047126438184759055
162,1643895786.3593667,0.047126438184759055
163,1643895786.3623083,0.047126438184759055
164,1643895786.3652546,0.047126438184759055
165,1643895786.3681977,0.047126438184759055
166,1643895786.37114,0.04725144199957274
167,1643895786.3740842,0.04737644581438642
168,1643895786.3770323,0.04737644581438642
169,1643895786.379976,0.047126438184759055
170,1643895786.3829188,0.047001434369945375
171,1643895786.3858657,0.047126438184759055
172,1643895786.3888094,0.047126438184759055
173,1643895786.391752,0.047126438184759055
174,1643895786.3947012,0.047126438184759055
175,1643895786.397647,0.047001434369945375
176,1643895786.4005911,0.04725144199957274
177,1643895786.4035583,0.04725144199957274
178,1643895786.4065082,0.047126438184759055
179,1643895786.4094522,0.047126438184759055
180,1643895786.4123945,0.047126438184759055
181,1643895786.4153416,0.047126438184759055
182,1643895786.4182847,0.047126438184759055
183,1643895786.4212282,0.04725144199957274
184,1643895786.4241695,0.04737644581438642
185,1643895786.4271166,0.04737644581438642
186,1643895786.4300594,0.04725144199957274
187,1643895786.4330013,0.04725144199957274
188,1643895786.4359503,0.04737644581438642
189,1643895786.4388924,0.04725144199957274
190,1643895786.4418352,0.04725144199957274
191,1643895786.4448044,0.04737644581438642
192,1643895786.447749,0.04725144199957274
193,1643895786.4506922,0.04725144199957274
194,1643895786.453634,0.04725144199957274
195,1643895786.4565804,0.04725144199957274
196,1643895786.459524,0.04725144199957274
197,1643895786.4624667,0.04725144199957274
198,1643895786.4654133,0.04725144199957274
199,1643895786.4683561,0.04725144199957274
200,1643895786.4712982,0.04737644581438642
201,1643895786.4742405,0.04737644581438642
202,1643895786.4771879,0.04737644581438642
203,1643895786.4801302,0.04725144199957274
204,1643895786.4830735,0.047126438184759055
205,1643895786.4860194,0.04725144199957274
206,1643895786.4889624,0.04737644581438642
207,1643895786.4919043,0.04737644581438642
208,1643895786.4948514,0.04725144199957274
209,1643895786.4977958,0.04737644581438642
210,1643895786.5007381,0.04750144962920011
211,1643895786.5036802,0.04750144962920011
212,1643895786.5066252,0.04737644581438642
213,1643895786.5095677,0.04737644581438642
214,1643895786.512511,0.04725144199957274
215,1643895786.5154574,0.04737644581438642
216,1643895786.5184004,0.04725144199957274
217,1643895786.5213432,0.04750144962920011
218,1643895786.5242856,0.04750144962920011
219,1643895786.5272317,0.04750144962920011
220,1643895786.530174,0.04737644581438642
221,1643895786.5331163,0.04725144199957274
222,1643895786.5360649,0.04725144199957274
223,1643895786.5390074,0.04737644581438642
224,1643895786.541949,0.04750144962920011
225,1643895786.5448956,0.04737644581438642
226,1643895786.5478377,0.04750144962920011
227,1643895786.5507793,0.04737644581438642
228,1643895786.5537217,0.04737644581438642
229,1643895786.5566685,0.04750144962920011
230,1643895786.559613,0.04737644581438642
231,1643895786.5625548,0.04750144962920011
232,1643895786.5655017,0.04737644581438642
233,1643895786.568445,0.04750144962920011
234,1643895786.5713937,0.04750144962920011
235,1643895786.5743392,0.0476264534440138
236,1643895786.5772862,0.04750144962920011
237,1643895786.5802288,0.04750144962920011
238,1643895786.5831707,0.04725144199957274
239,1643895786.5861182,0.04750144962920011
240,1643895786.5890553,0.0476264534440138
241,1643895786.59199,0.0476264534440138
242,1643895786.594923,0.0476264534440138
243,1643895786.5978715,0.04750144962920011
244,1643895786.600814,0.04750144962920011
245,1643895786.6037576,0.04750144962920011
246,1643895786.6067035,0.0476264534440138
247,1643895786.6096475,0.0476264534440138
248,1643895786.612589,0.04737644581438642
249,1643895786.6155348,0.04737644581438642
250,1643895786.6184778,0.04750144962920011
251,1643895786.6214242,0.04750144962920011
252,1643895786.6243658,0.04750144962920011
253,1643895786.6273108,0.04750144962920011
254,1643895786.6302526,0.04750144962920011
255,1643895786.6331942,0.04750144962920011
256,1643895786.6361423,0.0476264534440138
257,1643895786.6390846,0.048751487777336955
258,1643895786.6420276,0.04775145725882748
259,1643895786.6449735,0.04775145725882748
260,1643895786.6479166,0.0476264534440138
261,1643895786.6508605,0.0476264534440138
262,1643895786.6538298,0.0476264534440138
263,1643895786.656776,0.0476264534440138
264,1643895786.6597204,0.0476264534440138
265,1643895786.662663,0.0476264534440138
266,1643895786.6656117,0.0476264534440138
267,1643895786.6685543,0.0476264534440138
268,1643895786.671496,0.04775145725882748
269,1643895786.674438,0.04775145725882748
270,1643895786.6774127,0.04775145725882748
271,1643895786.6803558,0.0476264534440138
272,1643895786.6832993,0.0476264534440138
273,1643895786.6862473,0.04775145725882748
274,1643895786.6891887,0.04775145725882748
275,1643895786.6921306,0.04775145725882748
276,1643895786.6950767,0.04775145725882748
277,1643895786.6980217,0.04775145725882748
278,1643895786.7009876,0.0476264534440138
279,1643895786.703931,0.04775145725882748
280,1643895786.7068787,0.04775145725882748
281,1643895786.7098215,0.04775145725882748
282,1643895786.7127638,0.04775145725882748
283,1643895786.7157094,0.0476264534440138
284,1643895786.7186525,0.0476264534440138
285,1643895786.7217531,0.04775145725882748
286,1643895786.7247036,0.0476264534440138
287,1643895786.7276878,0.04775145725882748
288,1643895786.7306335,0.0476264534440138
289,1643895786.7335753,0.0476264534440138
290,1643895786.7365222,0.04775145725882748
291,1643895786.739464,0.047876461073641165
292,1643895786.742405,0.047876461073641165
293,1643895786.7453532,0.047876461073641165
294,1643895786.7482967,0.04775145725882748
295,1643895786.751239,0.04775145725882748
296,1643895786.754181,0.04775145725882748
297,1643895786.7571278,0.04775145725882748
298,1643895786.7600732,0.047876461073641165
299,1643895786.7630162,0.047876461073641165
300,1643895786.7659633,0.047876461073641165
301,1643895786.7689059,0.047876461073641165
302,1643895786.7718494,0.047876461073641165
303,1643895786.7748175,0.047876461073641165
304,1643895786.777763,0.047876461073641165
305,1643895786.7807045,0.047876461073641165
306,1643895786.783646,0.04775145725882748
307,1643895786.786592,0.047876461073641165
308,1643895786.789534,0.04800146488845485
309,1643895786.7924786,0.047876461073641165
310,1643895786.7954268,0.047876461073641165
311,1643895786.798369,0.047876461073641165
312,1643895786.801311,0.047876461073641165
313,1643895786.8042521,0.04800146488845485
314,1643895786.8072016,0.04800146488845485
315,1643895786.8101444,0.04800146488845485
316,1643895786.8130865,0.04800146488845485
317,1643895786.816033,0.047876461073641165
318,1643895786.818974,0.04800146488845485
319,1643895786.8219445,0.047876461073641165
320,1643895786.8248963,0.047876461073641165
321,1643895786.8278399,0.047876461073641165
322,1643895786.8307817,0.04775145725882748
323,1643895786.8337235,0.047876461073641165
324,1643895786.83667,0.047876461073641165
325,1643895786.8396132,0.04800146488845485
326,1643895786.8425543,0.047876461073641165
327,1643895786.8455012,0.047876461073641165
328,1643895786.8484423,0.047876461073641165
329,1643895786.8513844,0.04775145725882748
330,1643895786.854327,0.04775145725882748
331,1643895786.8572724,0.04800146488845485
332,1643895786.8602066,0.047876461073641165
333,1643895786.8631394,0.047876461073641165
334,1643895786.8660781,0.047876461073641165
335,1643895786.8690286,0.047876461073641165
336,1643895786.8719711,0.047876461073641165
337,1643895786.8749185,0.04800146488845485
338,1643895786.8778603,0.04800146488845485
339,1643895786.8808017,0.047876461073641165
340,1643895786.8837464,0.047876461073641165
341,1643895786.886691,0.047876461073641165
342,1643895786.8896341,0.04800146488845485
343,1643895786.8925765,0.04800146488845485
344,1643895786.895522,0.04800146488845485
345,1643895786.8984654,0.04800146488845485
346,1643895786.901409,0.04800146488845485
347,1643895786.904351,0.047876461073641165
348,1643895786.9072962,0.04800146488845485
349,1643895786.9102383,0.04800146488845485
350,1643895786.91318,0.04800146488845485
351,1643895786.9161274,0.04800146488845485
352,1643895786.9190705,0.04800146488845485
353,1643895786.9220395,0.04800146488845485
354,1643895786.9249907,0.04812646870326853
355,1643895786.927938,0.04800146488845485
356,1643895786.930882,0.04800146488845485
357,1643895786.9338253,0.04800146488845485
358,1643895786.9367719,0.04800146488845485
359,1643895786.939714,0.04800146488845485
360,1643895786.9426568,0.04812646870326853
361,1643895786.9456046,0.047876461073641165
362,1643895786.9485483,0.04800146488845485
363,1643895786.951491,0.047876461073641165
364,1643895786.9544322,0.047876461073641165
365,1643895786.957403,0.04800146488845485
366,1643895786.9603477,0.04800146488845485
367,1643895786.9632916,0.047876461073641165
368,1643895786.9662385,0.04800146488845485
369,1643895786.9691815,0.04800146488845485
370,1643895786.9721224,0.04800146488845485
371,1643895786.9750683,0.04800146488845485
372,1643895786.978013,0.04800146488845485
373,1643895786.9809558,0.047876461073641165
374,1643895786.9838989,0.047876461073641165
375,1643895786.9868455,0.04800146488845485
376,1643895786.989787,0.04800146488845485
377,1643895786.9927301,0.04812646870326853
378,1643895786.9956768,0.047876461073641165
379,1643895786.9986453,0.047876461073641165
380,1643895787.0015876,0.04800146488845485
381,1643895787.00453,0.047876461073641165
382,1643895787.00748,0.04812646870326853
383,1643895787.0104227,0.04812646870326853
384,1643895787.0133657,0.04800146488845485
385,1643895787.0163124,0.04812646870326853
386,1643895787.019256,0.04800146488845485
387,1643895787.0222275,0.04812646870326853
388,1643895787.0251787,0.04812646870326853
389,1643895787.0281477,0.04800146488845485
390,1643895787.031115,0.04800146488845485
391,1643895787.0340583,0.04800146488845485
392,1643895787.0370047,0.04812646870326853
393,1643895787.0399501,0.04812646870326853
394,1643895787.042892,0.04800146488845485
395,1643895787.0458379,0.04800146488845485
396,1643895787.0487812,0.04800146488845485
397,1643895787.0517232,0.04800146488845485
398,1643895787.0546675,0.04812646870326853
399,1643895787.0576146,0.04812646870326853
400,1643895787.0605574,0.04812646870326853
401,1643895787.0634985,0.04812646870326853
402,1643895787.0664449,0.04800146488845485
403,1643895787.069389,0.04800146488845485
404,1643895787.0723321,0.04800146488845485
405,1643895787.075278,0.04812646870326853
406,1643895787.078223,0.04812646870326853
407,1643895787.0811648,0.04812646870326853
408,1643895787.0841057,0.04812646870326853
409,1643895787.0870533,0.04812646870326853
410,1643895787.0899944,0.04812646870326853
411,1643895787.092936,0.04812646870326853
412,1643895787.0958827,0.04812646870326853
413,1643895787.0988178,0.04800146488845485
414,1643895787.1017528,0.04812646870326853
415,1643895787.1046865,0.04812646870326853
416,1643895787.1076305,0.04825147251808222
417,1643895787.1105745,0.04825147251808222
418,1643895787.113518,0.04812646870326853
419,1643895787.1164658,0.04812646870326853
420,1643895787.1194084,0.04812646870326853
421,1643895787.1223783,0.04825147251808222
422,1643895787.1253288,0.04825147251808222
423,1643895787.128272,0.04825147251808222
424,1643895787.1312158,0.04825147251808222
425,1643895787.1341574,0.04825147251808222
426,1643895787.137105,0.0483764763328959
427,1643895787.140048,0.0483764763328959
428,1643895787.1429887,0.04825147251808222
429,1643895787.1459367,0.0483764763328959
430,1643895787.1488807,0.04825147251808222
431,1643895787.1518242,0.04825147251808222
432,1643895787.1547668,0.0483764763328959
433,1643895787.1577399,0.04850148014770959
434,1643895787.160682,0.04850148014770959
435,1643895787.1636257,0.04850148014770959
436,1643895787.1665735,0.0483764763328959
437,1643895787.1695158,0.0483764763328959
438,1643895787.172457,0.04850148014770959
439,1643895787.1754036,0.04850148014770959
440,1643895787.1783464,0.04850148014770959
441,1643895787.1812887,0.04850148014770959
442,1643895787.1842306,0.04850148014770959
443,1643895787.1871772,0.04850148014770959
444,1643895787.1901197,0.0483764763328959
445,1643895787.1930637,0.04850148014770959
446,1643895787.196011,0.04850148014770959
447,1643895787.1989532,0.04850148014770959
448,1643895787.2018948,0.04850148014770959
449,1643895787.204841,0.048626483962523274
450,1643895787.2077851,0.04850148014770959
451,1643895787.210729,0.048626483962523274
452,1643895787.2136705,0.048626483962523274
453,1643895787.2166176,0.0483764763328959
454,1643895787.21956,0.04850148014770959
455,1643895787.2225301,0.04850148014770959
456,1643895787.2254825,0.048626483962523274
457,1643895787.2284262,0.048626483962523274
458,1643895787.2313685,0.048626483962523274
459,1643895787.2343106,0.048626483962523274
460,1643895787.2372572,0.048626483962523274
461,1643895787.2402003,0.048626483962523274
462,1643895787.243142,0.048626483962523274
463,1643895787.2460892,0.04850148014770959
464,1643895787.2490327,0.048626483962523274
465,1643895787.2519758,0.04850148014770959
466,1643895787.254924,0.048626483962523274
467,1643895787.2578669,0.048751487777336955
468,1643895787.2608094,0.048626483962523274
