,Time (s),Signal (V)
0,1643896066.2293358,0.01525046540726951
1,1643896066.2380273,0.014750450148014772
2,1643896066.2410126,0.014875453962828456
3,1643896066.243964,0.01525046540726951
4,1643896066.2469106,0.01500045777764214
5,1643896066.2498584,0.014750450148014772
6,1643896066.2527983,0.015125461592455824
7,1643896066.2557395,0.01525046540726951
8,1643896066.2587132,0.014875453962828456
9,1643896066.2616546,0.01500045777764214
10,1643896066.264593,0.01525046540726951
11,1643896066.2675357,0.014375438703573717
12,1643896066.2704744,0.014500442518387403
13,1643896066.2734103,0.01525046540726951
14,1643896066.2763522,0.01500045777764214
15,1643896066.2793052,0.014750450148014772
16,1643896066.2822597,0.014875453962828456
17,1643896066.2852125,0.01662550737022004
18,1643896066.2881567,0.0161254921109653
19,1643896066.2911005,0.01500045777764214
20,1643896066.2940466,0.015125461592455824
21,1643896066.2969913,0.014875453962828456
22,1643896066.299936,0.014750450148014772
23,1643896066.3028786,0.014875453962828456
24,1643896066.3058245,0.01500045777764214
25,1643896066.3087697,0.014625446333201087
26,1643896066.3117125,0.014875453962828456
27,1643896066.3146563,0.01500045777764214
28,1643896066.3176131,0.014625446333201087
29,1643896066.320558,0.014625446333201087
30,1643896066.3235006,0.014875453962828456
31,1643896066.326449,0.014875453962828456
32,1643896066.3293924,0.014500442518387403
33,1643896066.3323343,0.01500045777764214
34,1643896066.3352814,0.01500045777764214
35,1643896066.3382244,0.014750450148014772
36,1643896066.34117,0.01500045777764214
37,1643896066.344112,0.015125461592455824
38,1643896066.3470597,0.014750450148014772
39,1643896066.3500023,0.014625446333201087
40,1643896066.3529434,0.014875453962828456
41,1643896066.3558912,0.014875453962828456
42,1643896066.3588347,0.014625446333201087
43,1643896066.361777,0.014750450148014772
44,1643896066.3647196,0.01500045777764214
45,1643896066.367695,0.014875453962828456
46,1643896066.3706408,0.014625446333201087
47,1643896066.3735867,0.01500045777764214
48,1643896066.3765345,0.014875453962828456
49,1643896066.3794773,0.014750450148014772
50,1643896066.3824208,0.014875453962828456
51,1643896066.3853679,0.01500045777764214
52,1643896066.3883128,0.014875453962828456
53,1643896066.3912554,0.014500442518387403
54,1643896066.3941946,0.014875453962828456
55,1643896066.3971412,0.014875453962828456
56,1643896066.4000852,0.014875453962828456
57,1643896066.403029,0.01525046540726951
58,1643896066.4059753,0.01525046540726951
59,1643896066.4089193,0.014875453962828456
60,1643896066.4118958,0.015125461592455824
61,1643896066.4148493,0.01525046540726951
62,1643896066.4177978,0.01500045777764214
63,1643896066.4207416,0.01500045777764214
64,1643896066.4236846,0.015375469222083193
65,1643896066.4266324,0.015375469222083193
66,1643896066.4295764,0.01500045777764214
67,1643896066.4325202,0.015125461592455824
68,1643896066.4354665,0.01525046540726951
69,1643896066.4384093,0.01500045777764214
70,1643896066.4413512,0.015125461592455824
71,1643896066.4442925,0.015375469222083193
72,1643896066.447239,0.015125461592455824
73,1643896066.4501848,0.01500045777764214
74,1643896066.4531264,0.015500473036896879
75,1643896066.4560997,0.015500473036896879
76,1643896066.4590435,0.015125461592455824
77,1643896066.4619875,0.015500473036896879
78,1643896066.464938,0.015625476851710562
79,1643896066.4678812,0.01525046540726951
80,1643896066.4708235,0.015125461592455824
81,1643896066.4737651,0.015625476851710562
82,1643896066.4767084,0.015625476851710562
83,1643896066.479652,0.01525046540726951
84,1643896066.482594,0.015625476851710562
85,1643896066.485541,0.015750480666524246
86,1643896066.4884844,0.015500473036896879
87,1643896066.4914265,0.015750480666524246
88,1643896066.4943707,0.01587548448133793
89,1643896066.4973187,0.015625476851710562
90,1643896066.5002608,0.015500473036896879
91,1643896066.5032032,0.0161254921109653
92,1643896066.5061507,0.01587548448133793
93,1643896066.5090942,0.015750480666524246
94,1643896066.5120397,0.016000488296151617
95,1643896066.5149868,0.016250495925778985
96,1643896066.5179284,0.016000488296151617
97,1643896066.52087,0.016000488296151617
98,1643896066.523811,0.016250495925778985
99,1643896066.5267577,0.0161254921109653
100,1643896066.5297005,0.016000488296151617
101,1643896066.532642,0.01637549974059267
102,1643896066.5355873,0.016500503555406356
103,1643896066.5385306,0.016250495925778985
104,1643896066.5414748,0.016500503555406356
105,1643896066.5444176,0.01662550737022004
106,1643896066.547359,0.016250495925778985
107,1643896066.5503051,0.0161254921109653
108,1643896066.5532477,0.016500503555406356
109,1643896066.5561967,0.016500503555406356
110,1643896066.5591385,0.01637549974059267
111,1643896066.5620801,0.01662550737022004
112,1643896066.565026,0.016750511185033724
113,1643896066.567968,0.016500503555406356
114,1643896066.5709116,0.01662550737022004
115,1643896066.5738528,0.01662550737022004
116,1643896066.5767982,0.016500503555406356
117,1643896066.5797412,0.01637549974059267
118,1643896066.5826826,0.016750511185033724
119,1643896066.585625,0.016875514999847407
120,1643896066.588568,0.01662550737022004
121,1643896066.5915096,0.016875514999847407
122,1643896066.594451,0.017000518814661095
123,1643896066.5974252,0.016875514999847407
124,1643896066.6003687,0.01662550737022004
125,1643896066.6033125,0.017000518814661095
126,1643896066.60626,0.016750511185033724
127,1643896066.6092086,0.016750511185033724
128,1643896066.6121511,0.016875514999847407
129,1643896066.615096,0.01712552262947478
130,1643896066.6180408,0.016875514999847407
131,1643896066.620981,0.017000518814661095
132,1643896066.6239214,0.017250526444288462
133,1643896066.626864,0.01712552262947478
134,1643896066.6298063,0.016875514999847407
135,1643896066.6327763,0.01712552262947478
136,1643896066.6357222,0.01712552262947478
137,1643896066.638665,0.017000518814661095
138,1643896066.6416073,0.01712552262947478
139,1643896066.644549,0.017375530259102146
140,1643896066.6474953,0.01712552262947478
141,1643896066.6504369,0.017000518814661095
142,1643896066.6533802,0.017250526444288462
143,1643896066.6563263,0.017375530259102146
144,1643896066.6592684,0.017000518814661095
145,1643896066.6622105,0.01712552262947478
146,1643896066.6651585,0.017375530259102146
147,1643896066.6681006,0.017000518814661095
148,1643896066.671042,0.017000518814661095
149,1643896066.6739874,0.017250526444288462
150,1643896066.6769347,0.01712552262947478
151,1643896066.6798768,0.016750511185033724
152,1643896066.6828194,0.017250526444288462
153,1643896066.685764,0.017250526444288462
154,1643896066.6887054,0.017000518814661095
155,1643896066.6916466,0.01712552262947478
156,1643896066.69459,0.017250526444288462
157,1643896066.6975353,0.017000518814661095
158,1643896066.7004771,0.016750511185033724
159,1643896066.7034194,0.017375530259102146
160,1643896066.7063656,0.017250526444288462
161,1643896066.709309,0.017000518814661095
162,1643896066.7122498,0.017250526444288462
163,1643896066.7151968,0.017375530259102146
164,1643896066.7181385,0.016875514999847407
165,1643896066.7210813,0.017000518814661095
166,1643896066.7240224,0.017250526444288462
167,1643896066.7269666,0.01712552262947478
168,1643896066.7299075,0.017000518814661095
169,1643896066.7328486,0.017250526444288462
170,1643896066.7357945,0.017250526444288462
171,1643896066.7387373,0.017000518814661095
172,1643896066.7416806,0.01712552262947478
173,1643896066.744622,0.017375530259102146
174,1643896066.747572,0.016875514999847407
175,1643896066.750515,0.016750511185033724
176,1643896066.753481,0.017000518814661095
177,1643896066.75643,0.017250526444288462
178,1643896066.7593727,0.017000518814661095
179,1643896066.7623143,0.017250526444288462
180,1643896066.765262,0.017250526444288462
181,1643896066.768204,0.01712552262947478
182,1643896066.7711494,0.017000518814661095
183,1643896066.774091,0.017375530259102146
184,1643896066.777037,0.01712552262947478
185,1643896066.7799788,0.017000518814661095
186,1643896066.7829216,0.016875514999847407
187,1643896066.78587,0.017250526444288462
188,1643896066.7888129,0.017000518814661095
189,1643896066.791755,0.017375530259102146
190,1643896066.794696,0.01750053407391583
191,1643896066.7976394,0.017250526444288462
192,1643896066.8005824,0.01712552262947478
193,1643896066.803525,0.017250526444288462
194,1643896066.80647,0.017250526444288462
195,1643896066.8094118,0.017250526444288462
196,1643896066.8123534,0.017250526444288462
197,1643896066.815299,0.017375530259102146
198,1643896066.818242,0.017250526444288462
199,1643896066.821184,0.017250526444288462
200,1643896066.8241262,0.017625537888729517
201,1643896066.8270714,0.01750053407391583
202,1643896066.8300157,0.017250526444288462
203,1643896066.832959,0.01750053407391583
204,1643896066.8359034,0.01750053407391583
205,1643896066.8388455,0.017250526444288462
206,1643896066.8417878,0.01750053407391583
207,1643896066.8447297,0.0177505417035432
208,1643896066.8477058,0.01750053407391583
209,1643896066.8506467,0.01750053407391583
210,1643896066.8535893,0.0177505417035432
211,1643896066.856535,0.0177505417035432
212,1643896066.8594773,0.017625537888729517
213,1643896066.8624206,0.0177505417035432
214,1643896066.8653655,0.0177505417035432
215,1643896066.868307,0.01750053407391583
216,1643896066.8712492,0.01750053407391583
217,1643896066.8741903,0.01800054933317057
218,1643896066.8771358,0.017875545518356885
219,1643896066.8800805,0.0177505417035432
220,1643896066.883021,0.0177505417035432
221,1643896066.8859673,0.01800054933317057
222,1643896066.888909,0.0177505417035432
223,1643896066.8918517,0.017875545518356885
224,1643896066.8948178,0.018125553147984252
225,1643896066.89776,0.017875545518356885
226,1643896066.9007015,0.0177505417035432
227,1643896066.903643,0.018250556962797936
228,1643896066.9065893,0.018250556962797936
229,1643896066.9095333,0.01800054933317057
230,1643896066.912475,0.018250556962797936
231,1643896066.9154212,0.01837556077761162
232,1643896066.9183621,0.017875545518356885
233,1643896066.9213028,0.018125553147984252
234,1643896066.9242516,0.01837556077761162
235,1643896066.9271977,0.018250556962797936
236,1643896066.93014,0.018125553147984252
237,1643896066.9330807,0.018500564592425304
238,1643896066.9360259,0.018500564592425304
239,1643896066.9389696,0.018125553147984252
240,1643896066.9419105,0.018500564592425304
241,1643896066.9448576,0.01862556840723899
242,1643896066.9478009,0.018250556962797936
243,1643896066.9507425,0.018250556962797936
244,1643896066.9536843,0.01862556840723899
245,1643896066.9566324,0.01862556840723899
246,1643896066.9595735,0.018500564592425304
247,1643896066.9625168,0.018750572222052675
248,1643896066.965461,0.01887557603686636
249,1643896066.9684026,0.018500564592425304
250,1643896066.971345,0.018500564592425304
251,1643896066.974286,0.018750572222052675
252,1643896066.9772325,0.01862556840723899
253,1643896066.980174,0.018500564592425304
254,1643896066.9831157,0.018750572222052675
255,1643896066.986063,0.01862556840723899
256,1643896066.9890058,0.01862556840723899
257,1643896066.9919481,0.01887557603686636
258,1643896066.994894,0.019000579851680043
259,1643896066.9978352,0.018750572222052675
260,1643896067.0007782,0.01862556840723899
261,1643896067.0037196,0.019000579851680043
262,1643896067.0067208,0.01887557603686636
263,1643896067.0096638,0.018750572222052675
264,1643896067.0126054,0.01887557603686636
265,1643896067.015551,0.01912558366649373
266,1643896067.0184946,0.018750572222052675
267,1643896067.0214357,0.01912558366649373
268,1643896067.0243769,0.019375591296121097
269,1643896067.0273256,0.01912558366649373
270,1643896067.030272,0.019000579851680043
271,1643896067.0332174,0.01912558366649373
272,1643896067.0361657,0.019000579851680043
273,1643896067.0391083,0.01887557603686636
274,1643896067.0420504,0.01912558366649373
275,1643896067.0449965,0.019375591296121097
276,1643896067.0479405,0.019000579851680043
277,1643896067.050906,0.019625598925748465
278,1643896067.0538478,0.01950059511093478
279,1643896067.0567944,0.019375591296121097
280,1643896067.0597365,0.019250587481307414
281,1643896067.062679,0.019375591296121097
282,1643896067.0656238,0.019375591296121097
283,1643896067.0685656,0.019000579851680043
284,1643896067.0715063,0.01912558366649373
285,1643896067.0744486,0.019625598925748465
286,1643896067.0774255,0.01950059511093478
287,1643896067.0803719,0.019375591296121097
288,1643896067.0833137,0.01950059511093478
289,1643896067.086259,0.019750602740562152
290,1643896067.0892012,0.01912558366649373
291,1643896067.0921428,0.019375591296121097
292,1643896067.0950868,0.019750602740562152
293,1643896067.0980206,0.019375591296121097
294,1643896067.1009536,0.019375591296121097
295,1643896067.1038857,0.019875606555375836
296,1643896067.1068234,0.019750602740562152
297,1643896067.1097758,0.01950059511093478
298,1643896067.1127164,0.019750602740562152
299,1643896067.1156619,0.019875606555375836
300,1643896067.1187587,0.019375591296121097
301,1643896067.121707,0.01950059511093478
302,1643896067.1246526,0.02000061037018952
303,1643896067.1275995,0.019750602740562152
304,1643896067.1305401,0.019625598925748465
305,1643896067.1334803,0.02000061037018952
306,1643896067.1364255,0.019875606555375836
307,1643896067.1393666,0.019625598925748465
308,1643896067.1423087,0.02000061037018952
309,1643896067.1452534,0.020125614185003204
310,1643896067.1481974,0.019625598925748465
311,1643896067.1511378,0.019625598925748465
312,1643896067.1540778,0.020125614185003204
313,1643896067.157023,0.019875606555375836
314,1643896067.159961,0.019750602740562152
315,1643896067.162899,0.020125614185003204
316,1643896067.1658437,0.020125614185003204
317,1643896067.1687846,0.019750602740562152
318,1643896067.1717262,0.019750602740562152
319,1643896067.1746652,0.020125614185003204
320,1643896067.1776085,0.019875606555375836
321,1643896067.1805487,0.019875606555375836
322,1643896067.1834877,0.020125614185003204
323,1643896067.186434,0.019875606555375836
324,1643896067.1893735,0.01950059511093478
325,1643896067.1923132,0.02000061037018952
326,1643896067.1952558,0.020125614185003204
327,1643896067.1981962,0.019625598925748465
328,1643896067.201136,0.019875606555375836
329,1643896067.2040758,0.02025061799981689
330,1643896067.2070196,0.02000061037018952
331,1643896067.20996,0.019875606555375836
332,1643896067.2128997,0.02025061799981689
333,1643896067.2158444,0.020125614185003204
334,1643896067.2188134,0.019875606555375836
335,1643896067.221756,0.020125614185003204
336,1643896067.2246964,0.02025061799981689
337,1643896067.2276366,0.019875606555375836
338,1643896067.230575,0.019875606555375836
339,1643896067.2335155,0.020125614185003204
340,1643896067.2364595,0.019875606555375836
341,1643896067.2394004,0.019750602740562152
342,1643896067.2423394,0.020125614185003204
343,1643896067.245282,0.020125614185003204
344,1643896067.248224,0.019875606555375836
345,1643896067.2511628,0.019875606555375836
346,1643896067.2541018,0.020125614185003204
347,1643896067.2570443,0.019750602740562152
348,1643896067.259984,0.019750602740562152
349,1643896067.2629244,0.02000061037018952
350,1643896067.2658677,0.019750602740562152
351,1643896067.2688076,0.01950059511093478
352,1643896067.2717464,0.019875606555375836
353,1643896067.2746844,0.020125614185003204
354,1643896067.277628,0.019875606555375836
355,1643896067.280569,0.019875606555375836
356,1643896067.283509,0.019875606555375836
357,1643896067.2864544,0.02000061037018952
358,1643896067.2893941,0.01950059511093478
359,1643896067.292336,0.01950059511093478
360,1643896067.295279,0.019875606555375836
361,1643896067.298219,0.019625598925748465
362,1643896067.301158,0.019625598925748465
363,1643896067.304097,0.019875606555375836
364,1643896067.3070416,0.019875606555375836
365,1643896067.3099844,0.019625598925748465
366,1643896067.312924,0.019750602740562152
367,1643896067.315867,0.019875606555375836
368,1643896067.3188334,0.01950059511093478
369,1643896067.3217733,0.01950059511093478
370,1643896067.3247132,0.019875606555375836
371,1643896067.327683,0.019625598925748465
372,1643896067.3306215,0.01950059511093478
373,1643896067.333561,0.019750602740562152
374,1643896067.3365042,0.019625598925748465
375,1643896067.339446,0.019250587481307414
376,1643896067.342384,0.01950059511093478
377,1643896067.3453274,0.019875606555375836
378,1643896067.3482926,0.019375591296121097
379,1643896067.3512332,0.019250587481307414
380,1643896067.3541746,0.019750602740562152
381,1643896067.357119,0.019375591296121097
382,1643896067.3600585,0.019375591296121097
383,1643896067.3629978,0.019625598925748465
384,1643896067.3659415,0.019625598925748465
385,1643896067.3688843,0.01912558366649373
386,1643896067.3718226,0.019375591296121097
387,1643896067.3747606,0.019750602740562152
388,1643896067.3778768,0.01950059511093478
389,1643896067.3808439,0.019375591296121097
390,1643896067.3838055,0.019625598925748465
391,1643896067.3867474,0.019625598925748465
392,1643896067.3896887,0.019625598925748465
393,1643896067.3926249,0.019750602740562152
394,1643896067.3955593,0.019750602740562152
395,1643896067.3984969,0.01912558366649373
396,1643896067.4014318,0.01912558366649373
397,1643896067.4043663,0.019375591296121097
398,1643896067.4072988,0.019250587481307414
399,1643896067.410235,0.01912558366649373
400,1643896067.4131665,0.019375591296121097
401,1643896067.4161024,0.01950059511093478
402,1643896067.4190717,0.01912558366649373
403,1643896067.422011,0.019375591296121097
404,1643896067.4249456,0.019625598925748465
405,1643896067.427884,0.019250587481307414
406,1643896067.4308221,0.01912558366649373
407,1643896067.4337585,0.01950059511093478
408,1643896067.4366927,0.019750602740562152
409,1643896067.4396281,0.019625598925748465
410,1643896067.4425604,0.02000061037018952
411,1643896067.4454932,0.020125614185003204
412,1643896067.4484308,0.019875606555375836
413,1643896067.451364,0.02000061037018952
414,1643896067.4542966,0.020125614185003204
415,1643896067.4572341,0.019875606555375836
416,1643896067.46018,0.019750602740562152
417,1643896067.4631228,0.02000061037018952
418,1643896067.4660673,0.020125614185003204
419,1643896067.469008,0.019875606555375836
420,1643896067.4719472,0.02025061799981689
421,1643896067.4748924,0.02050062562944426
422,1643896067.4778337,0.02025061799981689
423,1643896067.4807734,0.020125614185003204
424,1643896067.4837127,0.02025061799981689
425,1643896067.4866562,0.020125614185003204
426,1643896067.4895966,0.020125614185003204
427,1643896067.4925368,0.020375621814630575
428,1643896067.4954798,0.020375621814630575
429,1643896067.4984198,0.019875606555375836
430,1643896067.5013583,0.019875606555375836
431,1643896067.504298,0.020125614185003204
432,1643896067.5072458,0.019875606555375836
433,1643896067.5101888,0.019750602740562152
434,1643896067.5131285,0.02000061037018952
435,1643896067.516073,0.019875606555375836
436,1643896067.5190132,0.019875606555375836
437,1643896067.5219834,0.019875606555375836
438,1643896067.524929,0.020375621814630575
439,1643896067.5278685,0.020125614185003204
440,1643896067.530807,0.019875606555375836
441,1643896067.5337465,0.02025061799981689
442,1643896067.5366917,0.020375621814630575
443,1643896067.5396323,0.02050062562944426
444,1643896067.5425727,0.020875637073885314
445,1643896067.5455158,0.021000640888698997
446,1643896067.5484557,0.020625629444257942
447,1643896067.5513964,0.02075063325907163
448,1643896067.5543368,0.02112564470351268
449,1643896067.557281,0.020875637073885314
450,1643896067.5602193,0.020875637073885314
451,1643896067.5631573,0.021000640888698997
452,1643896067.5661008,0.02112564470351268
453,1643896067.5690424,0.020875637073885314
454,1643896067.5719817,0.02112564470351268
455,1643896067.5749254,0.021375652333140052
456,1643896067.5778644,0.021000640888698997
457,1643896067.5808032,0.021000640888698997
458,1643896067.5837424,0.021375652333140052
459,1643896067.586685,0.02112564470351268
460,1643896067.589625,0.021000640888698997
461,1643896067.5925639,0.021375652333140052
462,1643896067.5955076,0.02162565996276742
