,Time (s),Signal (V)
0,1643745762.4352286,-0.0161254921109653
1,1643745762.4434688,-0.016250495925778985
2,1643745762.4463444,-0.016250495925778985
3,1643745762.449191,-0.01637549974059267
4,1643745762.452058,-0.016500503555406356
5,1643745762.454897,-0.01637549974059267
6,1643745762.4577317,-0.0161254921109653
7,1643745762.460571,-0.016000488296151617
8,1643745762.4634035,-0.015750480666524246
9,1643745762.4662318,-0.015625476851710562
10,1643745762.469064,-0.015500473036896879
11,1643745762.4718943,-0.01587548448133793
12,1643745762.4747229,-0.016000488296151617
13,1643745762.4775531,-0.016000488296151617
14,1643745762.4804077,-0.016000488296151617
15,1643745762.4832392,-0.016000488296151617
16,1643745762.4861093,-0.016000488296151617
17,1643745762.4889493,-0.0161254921109653
18,1643745762.4917853,-0.0161254921109653
19,1643745762.4946194,-0.016250495925778985
20,1643745762.4974551,-0.0161254921109653
21,1643745762.5002882,-0.0161254921109653
22,1643745762.5031216,-0.01637549974059267
23,1643745762.5059545,-0.01637549974059267
24,1643745762.5087905,-0.016250495925778985
25,1643745762.511626,-0.016000488296151617
26,1643745762.51446,-0.01587548448133793
27,1643745762.5172982,-0.015750480666524246
28,1643745762.5201316,-0.015750480666524246
29,1643745762.5229635,-0.016000488296151617
30,1643745762.525797,-0.016000488296151617
31,1643745762.5286608,-0.016000488296151617
32,1643745762.5314963,-0.0161254921109653
33,1643745762.5343308,-0.016000488296151617
34,1643745762.5371659,-0.016000488296151617
35,1643745762.5399969,-0.016000488296151617
36,1643745762.542829,-0.016000488296151617
37,1643745762.5456603,-0.01587548448133793
38,1643745762.5484922,-0.01587548448133793
39,1643745762.5513268,-0.0161254921109653
40,1643745762.5541615,-0.016250495925778985
41,1643745762.5569937,-0.016250495925778985
42,1643745762.5598254,-0.016500503555406356
43,1643745762.562657,-0.01662550737022004
44,1643745762.565489,-0.016500503555406356
45,1643745762.5683231,-0.01587548448133793
46,1643745762.5711546,-0.01587548448133793
47,1643745762.5739887,-0.016000488296151617
48,1643745762.576821,-0.015750480666524246
49,1643745762.5796552,-0.015625476851710562
50,1643745762.58249,-0.01587548448133793
51,1643745762.5853229,-0.016000488296151617
52,1643745762.5881586,-0.016250495925778985
53,1643745762.59099,-0.01637549974059267
54,1643745762.5938208,-0.0161254921109653
55,1643745762.5966575,-0.016000488296151617
56,1643745762.5994887,-0.016000488296151617
57,1643745762.6023223,-0.0161254921109653
58,1643745762.605154,-0.0161254921109653
59,1643745762.6079924,-0.0161254921109653
60,1643745762.6108246,-0.016250495925778985
61,1643745762.6136582,-0.01637549974059267
62,1643745762.6164918,-0.016250495925778985
63,1643745762.6193233,-0.016250495925778985
64,1643745762.6221545,-0.016250495925778985
65,1643745762.6249843,-0.01587548448133793
66,1643745762.627816,-0.015750480666524246
67,1643745762.6306503,-0.01587548448133793
68,1643745762.6334832,-0.015750480666524246
69,1643745762.6363144,-0.015625476851710562
70,1643745762.6391456,-0.015750480666524246
71,1643745762.6419766,-0.01587548448133793
72,1643745762.6448073,-0.016000488296151617
73,1643745762.6476414,-0.015750480666524246
74,1643745762.6504748,-0.015750480666524246
75,1643745762.653322,-0.015750480666524246
76,1643745762.6561563,-0.015750480666524246
77,1643745762.6589923,-0.015750480666524246
78,1643745762.661825,-0.01587548448133793
79,1643745762.6646566,-0.016000488296151617
80,1643745762.6674879,-0.0161254921109653
81,1643745762.6703203,-0.016250495925778985
82,1643745762.6731515,-0.016500503555406356
83,1643745762.6759825,-0.016250495925778985
84,1643745762.6788547,-0.0161254921109653
85,1643745762.6816874,-0.01587548448133793
86,1643745762.684519,-0.015625476851710562
87,1643745762.6873503,-0.015625476851710562
88,1643745762.6901805,-0.015750480666524246
89,1643745762.6930134,-0.015750480666524246
90,1643745762.695846,-0.01587548448133793
91,1643745762.6987083,-0.016000488296151617
92,1643745762.7015421,-0.016000488296151617
93,1643745762.7043753,-0.0161254921109653
94,1643745762.707208,-0.01587548448133793
95,1643745762.7100403,-0.015750480666524246
96,1643745762.7128735,-0.015750480666524246
97,1643745762.7157047,-0.015500473036896879
98,1643745762.7185361,-0.015625476851710562
99,1643745762.721366,-0.015750480666524246
100,1643745762.7241971,-0.016000488296151617
101,1643745762.7270296,-0.016000488296151617
102,1643745762.7298598,-0.01587548448133793
103,1643745762.7326915,-0.01587548448133793
104,1643745762.735524,-0.015750480666524246
105,1643745762.7383554,-0.015625476851710562
106,1643745762.7411873,-0.015500473036896879
107,1643745762.7440205,-0.01525046540726951
108,1643745762.746852,-0.015125461592455824
109,1643745762.7496846,-0.01525046540726951
110,1643745762.7525163,-0.015500473036896879
111,1643745762.7553484,-0.015625476851710562
112,1643745762.7581806,-0.01587548448133793
113,1643745762.7610114,-0.01587548448133793
114,1643745762.7638454,-0.01587548448133793
115,1643745762.7667117,-0.015625476851710562
116,1643745762.769545,-0.015750480666524246
117,1643745762.772376,-0.015750480666524246
118,1643745762.775208,-0.015750480666524246
119,1643745762.7780414,-0.015500473036896879
120,1643745762.7808776,-0.015750480666524246
121,1643745762.78371,-0.01587548448133793
122,1643745762.7865484,-0.015500473036896879
123,1643745762.78938,-0.015625476851710562
124,1643745762.7922115,-0.015500473036896879
125,1643745762.795043,-0.015375469222083193
126,1643745762.7978787,-0.015375469222083193
127,1643745762.800721,-0.01525046540726951
128,1643745762.8035898,-0.015375469222083193
129,1643745762.8064287,-0.015500473036896879
130,1643745762.8092635,-0.015500473036896879
131,1643745762.8120973,-0.015625476851710562
132,1643745762.8149579,-0.015375469222083193
133,1643745762.8177922,-0.015375469222083193
134,1643745762.8206244,-0.015500473036896879
135,1643745762.8234563,-0.015625476851710562
136,1643745762.8262887,-0.015375469222083193
137,1643745762.8291235,-0.015375469222083193
138,1643745762.8319552,-0.015500473036896879
139,1643745762.834786,-0.015500473036896879
140,1643745762.8376179,-0.015500473036896879
141,1643745762.8404505,-0.015625476851710562
142,1643745762.8432848,-0.015500473036896879
143,1643745762.846118,-0.01525046540726951
144,1643745762.8489509,-0.01500045777764214
145,1643745762.8517835,-0.014750450148014772
146,1643745762.8546145,-0.014875453962828456
147,1643745762.8574448,-0.014750450148014772
148,1643745762.8602755,-0.014750450148014772
149,1643745762.8631094,-0.015125461592455824
150,1643745762.8659413,-0.015125461592455824
151,1643745762.8687747,-0.015125461592455824
152,1643745762.8716063,-0.015375469222083193
153,1643745762.8744369,-0.015375469222083193
154,1643745762.8772683,-0.01500045777764214
155,1643745762.8801007,-0.015125461592455824
156,1643745762.8829322,-0.01525046540726951
157,1643745762.8857622,-0.015125461592455824
158,1643745762.8885949,-0.015500473036896879
159,1643745762.8914242,-0.015750480666524246
160,1643745762.8942552,-0.015750480666524246
161,1643745762.8970864,-0.015500473036896879
162,1643745762.899919,-0.015625476851710562
163,1643745762.9027498,-0.015500473036896879
164,1643745762.9055798,-0.015375469222083193
165,1643745762.9084122,-0.015375469222083193
166,1643745762.9112432,-0.01525046540726951
167,1643745762.914074,-0.01500045777764214
168,1643745762.9169064,-0.015125461592455824
169,1643745762.9197366,-0.01525046540726951
170,1643745762.9225676,-0.015750480666524246
171,1643745762.9253983,-0.015750480666524246
172,1643745762.9282272,-0.015500473036896879
173,1643745762.931058,-0.015500473036896879
174,1643745762.9338956,-0.015500473036896879
175,1643745762.9367292,-0.015375469222083193
176,1643745762.9395614,-0.015625476851710562
177,1643745762.942393,-0.015625476851710562
178,1643745762.9452252,-0.01587548448133793
179,1643745762.9480572,-0.016000488296151617
180,1643745762.9508898,-0.016000488296151617
181,1643745762.9537203,-0.01587548448133793
182,1643745762.9565568,-0.01587548448133793
183,1643745762.9593883,-0.015750480666524246
184,1643745762.9622204,-0.015625476851710562
185,1643745762.9650507,-0.015625476851710562
186,1643745762.9679213,-0.015500473036896879
187,1643745762.9707592,-0.01587548448133793
188,1643745762.9735973,-0.016000488296151617
189,1643745762.9764435,-0.01587548448133793
190,1643745762.9792783,-0.016000488296151617
191,1643745762.9821112,-0.016000488296151617
192,1643745762.984943,-0.015625476851710562
193,1643745762.9877758,-0.015750480666524246
194,1643745762.9906082,-0.016000488296151617
195,1643745762.9934406,-0.01587548448133793
196,1643745762.996272,-0.016000488296151617
197,1643745762.9991047,-0.0161254921109653
198,1643745763.0019372,-0.016000488296151617
199,1643745763.00477,-0.016250495925778985
200,1643745763.0076015,-0.0161254921109653
201,1643745763.0104322,-0.01587548448133793
202,1643745763.013266,-0.015750480666524246
203,1643745763.0160966,-0.015625476851710562
204,1643745763.0189283,-0.015375469222083193
205,1643745763.021761,-0.015375469222083193
206,1643745763.0245926,-0.015500473036896879
207,1643745763.0274243,-0.01525046540726951
208,1643745763.0302553,-0.015375469222083193
209,1643745763.0330877,-0.015375469222083193
210,1643745763.0359185,-0.015375469222083193
211,1643745763.0387502,-0.015375469222083193
212,1643745763.0415823,-0.015375469222083193
213,1643745763.0444145,-0.01525046540726951
214,1643745763.0472453,-0.01525046540726951
215,1643745763.0500793,-0.015375469222083193
216,1643745763.0529683,-0.015375469222083193
217,1643745763.0558023,-0.015375469222083193
218,1643745763.0586734,-0.015500473036896879
219,1643745763.0615087,-0.015625476851710562
220,1643745763.0643427,-0.015500473036896879
221,1643745763.0671756,-0.015500473036896879
222,1643745763.0700102,-0.01525046540726951
223,1643745763.072841,-0.015375469222083193
224,1643745763.0756733,-0.015125461592455824
225,1643745763.0785058,-0.014875453962828456
226,1643745763.0813367,-0.01500045777764214
227,1643745763.084168,-0.01500045777764214
228,1643745763.0869992,-0.015125461592455824
229,1643745763.0898306,-0.01525046540726951
230,1643745763.092663,-0.01525046540726951
231,1643745763.0954936,-0.015125461592455824
232,1643745763.0983279,-0.015125461592455824
233,1643745763.1011581,-0.015125461592455824
234,1643745763.1039915,-0.01525046540726951
235,1643745763.1068225,-0.01525046540726951
236,1643745763.1096542,-0.015375469222083193
237,1643745763.112486,-0.015500473036896879
238,1643745763.1153173,-0.015625476851710562
239,1643745763.1181529,-0.015375469222083193
240,1643745763.1209843,-0.015375469222083193
241,1643745763.1238174,-0.01525046540726951
242,1643745763.1266558,-0.014875453962828456
243,1643745763.1294878,-0.014750450148014772
244,1643745763.132319,-0.014750450148014772
245,1643745763.1351497,-0.014750450148014772
246,1643745763.1379857,-0.014875453962828456
247,1643745763.140818,-0.015125461592455824
248,1643745763.1436489,-0.015375469222083193
249,1643745763.1464832,-0.01525046540726951
250,1643745763.149316,-0.01525046540726951
251,1643745763.1521463,-0.01500045777764214
252,1643745763.1549792,-0.014875453962828456
253,1643745763.1578143,-0.014875453962828456
254,1643745763.1606467,-0.01500045777764214
255,1643745763.1634774,-0.01500045777764214
256,1643745763.1663132,-0.015125461592455824
257,1643745763.169145,-0.015375469222083193
258,1643745763.171976,-0.015500473036896879
259,1643745763.1748352,-0.01500045777764214
260,1643745763.1776729,-0.014875453962828456
261,1643745763.1805065,-0.014875453962828456
262,1643745763.1833377,-0.014500442518387403
263,1643745763.1861749,-0.014375438703573717
264,1643745763.1890085,-0.014375438703573717
265,1643745763.1918387,-0.014625446333201087
266,1643745763.1946692,-0.014625446333201087
267,1643745763.1975012,-0.014750450148014772
268,1643745763.2003343,-0.01500045777764214
269,1643745763.20317,-0.014750450148014772
270,1643745763.2060115,-0.01500045777764214
271,1643745763.2088902,-0.014500442518387403
272,1643745763.2117226,-0.014375438703573717
273,1643745763.214553,-0.014500442518387403
274,1643745763.2173843,-0.014375438703573717
275,1643745763.2202153,-0.014500442518387403
276,1643745763.2230465,-0.014875453962828456
277,1643745763.2258775,-0.014875453962828456
278,1643745763.2287142,-0.01500045777764214
279,1643745763.2315469,-0.014750450148014772
280,1643745763.2343788,-0.014500442518387403
281,1643745763.2372088,-0.014125431073946348
282,1643745763.2400405,-0.014125431073946348
283,1643745763.2428722,-0.014125431073946348
284,1643745763.2457018,-0.014000427259132664
285,1643745763.2485332,-0.014250434888760034
286,1643745763.251365,-0.014375438703573717
287,1643745763.2541976,-0.014500442518387403
288,1643745763.257029,-0.014375438703573717
289,1643745763.259868,-0.014500442518387403
290,1643745763.2626987,-0.014500442518387403
291,1643745763.26553,-0.014375438703573717
292,1643745763.268362,-0.014250434888760034
293,1643745763.2711918,-0.014375438703573717
294,1643745763.274024,-0.014625446333201087
295,1643745763.2768567,-0.014500442518387403
296,1643745763.2797093,-0.014500442518387403
297,1643745763.2825422,-0.014500442518387403
298,1643745763.2853808,-0.014250434888760034
299,1643745763.2882144,-0.014250434888760034
300,1643745763.291047,-0.014250434888760034
301,1643745763.293877,-0.01387542344431898
302,1643745763.2967138,-0.013750419629505295
303,1643745763.299547,-0.01387542344431898
304,1643745763.3023808,-0.01387542344431898
305,1643745763.3052132,-0.014125431073946348
306,1643745763.308047,-0.014000427259132664
307,1643745763.3108802,-0.014125431073946348
308,1643745763.3137155,-0.014000427259132664
309,1643745763.3165483,-0.013750419629505295
310,1643745763.3193822,-0.01387542344431898
311,1643745763.3222134,-0.014125431073946348
312,1643745763.3250437,-0.014000427259132664
313,1643745763.3278754,-0.014125431073946348
314,1643745763.3307054,-0.014375438703573717
315,1643745763.3335378,-0.014500442518387403
316,1643745763.33637,-0.014500442518387403
317,1643745763.33923,-0.014500442518387403
318,1643745763.3420622,-0.014375438703573717
319,1643745763.3448942,-0.014125431073946348
320,1643745763.34773,-0.01387542344431898
321,1643745763.3505604,-0.01387542344431898
322,1643745763.3533914,-0.014000427259132664
323,1643745763.3562276,-0.014000427259132664
324,1643745763.3590603,-0.014125431073946348
325,1643745763.3618903,-0.014250434888760034
326,1643745763.3647225,-0.014250434888760034
327,1643745763.3675585,-0.014125431073946348
328,1643745763.3703914,-0.014250434888760034
329,1643745763.3732224,-0.014375438703573717
330,1643745763.3760576,-0.014250434888760034
331,1643745763.3788908,-0.014250434888760034
332,1643745763.381723,-0.014250434888760034
333,1643745763.384554,-0.014250434888760034
334,1643745763.3873906,-0.014250434888760034
335,1643745763.390222,-0.014625446333201087
336,1643745763.3930545,-0.014625446333201087
337,1643745763.3958852,-0.014375438703573717
338,1643745763.3987205,-0.014250434888760034
339,1643745763.4015517,-0.014375438703573717
340,1643745763.4043834,-0.014000427259132664
341,1643745763.4072208,-0.014000427259132664
342,1643745763.410051,-0.014000427259132664
343,1643745763.412884,-0.014000427259132664
344,1643745763.4157145,-0.014000427259132664
345,1643745763.418545,-0.014125431073946348
346,1643745763.4213758,-0.014375438703573717
347,1643745763.424208,-0.014375438703573717
348,1643745763.4270422,-0.014125431073946348
349,1643745763.4298747,-0.014250434888760034
350,1643745763.4327059,-0.014250434888760034
351,1643745763.4355361,-0.014375438703573717
352,1643745763.4383717,-0.014500442518387403
353,1643745763.4412048,-0.014500442518387403
354,1643745763.444036,-0.014500442518387403
355,1643745763.446875,-0.014500442518387403
356,1643745763.449708,-0.014625446333201087
357,1643745763.4525397,-0.014500442518387403
358,1643745763.455372,-0.014250434888760034
359,1643745763.4582078,-0.014250434888760034
360,1643745763.461041,-0.014000427259132664
361,1643745763.4638722,-0.01387542344431898
362,1643745763.4667084,-0.01387542344431898
363,1643745763.4695442,-0.014000427259132664
364,1643745763.4723752,-0.014500442518387403
365,1643745763.4752057,-0.014375438703573717
366,1643745763.4780424,-0.014250434888760034
367,1643745763.4808779,-0.014125431073946348
368,1643745763.4837072,-0.014125431073946348
369,1643745763.486543,-0.014000427259132664
370,1643745763.4893742,-0.014125431073946348
371,1643745763.4922059,-0.014125431073946348
372,1643745763.4950376,-0.014125431073946348
373,1643745763.4978752,-0.014125431073946348
374,1643745763.5007074,-0.014500442518387403
375,1643745763.5035372,-0.014375438703573717
376,1643745763.5063741,-0.014375438703573717
377,1643745763.509366,-0.014125431073946348
378,1643745763.5122092,-0.01387542344431898
379,1643745763.5150483,-0.013625415814691611
380,1643745763.517887,-0.013500411999877926
381,1643745763.520721,-0.013625415814691611
382,1643745763.5235546,-0.01387542344431898
383,1643745763.5263886,-0.01387542344431898
384,1643745763.5292213,-0.014125431073946348
385,1643745763.532054,-0.014000427259132664
386,1643745763.534918,-0.01387542344431898
387,1643745763.5377524,-0.01387542344431898
388,1643745763.5405834,-0.014000427259132664
389,1643745763.5434148,-0.013750419629505295
390,1643745763.5462472,-0.013750419629505295
391,1643745763.5490792,-0.013750419629505295
392,1643745763.551911,-0.014000427259132664
393,1643745763.554742,-0.014125431073946348
394,1643745763.5575757,-0.014125431073946348
395,1643745763.5604067,-0.014125431073946348
396,1643745763.563238,-0.014125431073946348
397,1643745763.5660753,-0.013750419629505295
398,1643745763.568906,-0.013500411999877926
399,1643745763.5717373,-0.013625415814691611
400,1643745763.5745685,-0.013625415814691611
401,1643745763.577406,-0.013625415814691611
402,1643745763.5802374,-0.013750419629505295
403,1643745763.583068,-0.01387542344431898
404,1643745763.585903,-0.01387542344431898
405,1643745763.5887392,-0.014000427259132664
406,1643745763.591573,-0.014000427259132664
407,1643745763.5944083,-0.013750419629505295
408,1643745763.5972393,-0.013750419629505295
409,1643745763.60007,-0.01387542344431898
410,1643745763.602902,-0.01387542344431898
411,1643745763.6057413,-0.01387542344431898
412,1643745763.6085782,-0.014000427259132664
413,1643745763.611441,-0.014125431073946348
414,1643745763.6142783,-0.014125431073946348
415,1643745763.6171148,-0.01387542344431898
416,1643745763.6199477,-0.01387542344431898
417,1643745763.6227784,-0.01387542344431898
418,1643745763.6256363,-0.013500411999877926
419,1643745763.6284733,-0.013500411999877926
420,1643745763.6313064,-0.01387542344431898
421,1643745763.6341386,-0.013625415814691611
422,1643745763.636974,-0.013500411999877926
423,1643745763.6398046,-0.013750419629505295
424,1643745763.6426377,-0.01387542344431898
425,1643745763.6454685,-0.01387542344431898
426,1643745763.6483011,-0.013750419629505295
427,1643745763.651151,-0.013750419629505295
428,1643745763.6539843,-0.013750419629505295
429,1643745763.656821,-0.013750419629505295
430,1643745763.659654,-0.01387542344431898
431,1643745763.6624882,-0.014000427259132664
432,1643745763.6653218,-0.014000427259132664
433,1643745763.668154,-0.014000427259132664
434,1643745763.671352,-0.014125431073946348
435,1643745763.6741915,-0.014000427259132664
436,1643745763.677028,-0.013625415814691611
437,1643745763.6798618,-0.013625415814691611
438,1643745763.6826956,-0.013375408185064242
439,1643745763.685529,-0.013250404370250556
440,1643745763.6883626,-0.013250404370250556
441,1643745763.6911952,-0.013625415814691611
442,1643745763.6940281,-0.013625415814691611
443,1643745763.6968608,-0.013625415814691611
444,1643745763.6996953,-0.013625415814691611
445,1643745763.7025294,-0.013625415814691611
446,1643745763.7053652,-0.013625415814691611
447,1643745763.7082133,-0.013750419629505295
448,1643745763.711047,-0.013750419629505295
449,1643745763.713918,-0.013750419629505295
450,1643745763.7167535,-0.013500411999877926
