,Time (s),Signal (V)
0,1647014891.0787702,-0.010625324259163182
1,1647014891.092576,-0.010625324259163182
2,1647014891.097064,-0.010500320444349499
3,1647014891.1015165,-0.010500320444349499
4,1647014891.1059656,-0.010625324259163182
5,1647014891.1104121,-0.010625324259163182
6,1647014891.1148717,-0.010625324259163182
7,1647014891.119326,-0.010625324259163182
8,1647014891.1237822,-0.010750328073976868
9,1647014891.1282363,-0.010750328073976868
10,1647014891.1326902,-0.010750328073976868
11,1647014891.1371398,-0.010750328073976868
12,1647014891.1415923,-0.010750328073976868
13,1647014891.146042,-0.010625324259163182
14,1647014891.1504915,-0.010500320444349499
15,1647014891.1549444,-0.010500320444349499
16,1647014891.1593943,-0.010625324259163182
17,1647014891.1638474,-0.010750328073976868
18,1647014891.1682944,-0.010750328073976868
19,1647014891.1727412,-0.010875331888790552
20,1647014891.177189,-0.010875331888790552
21,1647014891.1816392,-0.010875331888790552
22,1647014891.1860855,-0.010875331888790552
23,1647014891.1905298,-0.011000335703604236
24,1647014891.19498,-0.011000335703604236
25,1647014891.1994255,-0.010875331888790552
26,1647014891.203877,-0.010750328073976868
27,1647014891.208322,-0.010875331888790552
28,1647014891.2127712,-0.010750328073976868
29,1647014891.2172172,-0.010750328073976868
30,1647014891.2216675,-0.010750328073976868
31,1647014891.226114,-0.010875331888790552
32,1647014891.2305605,-0.011000335703604236
33,1647014891.2350447,-0.011000335703604236
34,1647014891.2394917,-0.011000335703604236
35,1647014891.243941,-0.011000335703604236
36,1647014891.248388,-0.010750328073976868
37,1647014891.2528393,-0.010625324259163182
38,1647014891.2572844,-0.010625324259163182
39,1647014891.2617342,-0.010625324259163182
40,1647014891.2661781,-0.010750328073976868
41,1647014891.2706227,-0.010750328073976868
42,1647014891.2750986,-0.010750328073976868
43,1647014891.279544,-0.010875331888790552
44,1647014891.2839923,-0.011000335703604236
45,1647014891.288437,-0.01112533951841792
46,1647014891.2928884,-0.01112533951841792
47,1647014891.2973342,-0.011000335703604236
48,1647014891.3017793,-0.010875331888790552
49,1647014891.306226,-0.010750328073976868
50,1647014891.3106782,-0.010750328073976868
51,1647014891.3151252,-0.010750328073976868
52,1647014891.3195686,-0.010750328073976868
53,1647014891.3240182,-0.010750328073976868
54,1647014891.328465,-0.011000335703604236
55,1647014891.3329132,-0.011000335703604236
56,1647014891.3373578,-0.011250343333231605
57,1647014891.341806,-0.011000335703604236
58,1647014891.3462524,-0.011000335703604236
59,1647014891.350703,-0.010875331888790552
60,1647014891.3551483,-0.010875331888790552
61,1647014891.3595932,-0.010875331888790552
62,1647014891.3640435,-0.010875331888790552
63,1647014891.3684888,-0.010750328073976868
64,1647014891.3729367,-0.010875331888790552
65,1647014891.3773808,-0.010875331888790552
66,1647014891.3818307,-0.011000335703604236
67,1647014891.386276,-0.01112533951841792
68,1647014891.3907263,-0.01112533951841792
69,1647014891.395171,-0.011250343333231605
70,1647014891.3996155,-0.011000335703604236
71,1647014891.4040644,-0.01112533951841792
72,1647014891.4085093,-0.01112533951841792
73,1647014891.4129875,-0.01112533951841792
74,1647014891.4174356,-0.010875331888790552
75,1647014891.4218857,-0.010875331888790552
76,1647014891.4263313,-0.011000335703604236
77,1647014891.4307811,-0.011000335703604236
78,1647014891.435226,-0.011000335703604236
79,1647014891.4396698,-0.01112533951841792
80,1647014891.4441185,-0.011250343333231605
81,1647014891.448564,-0.011250343333231605
82,1647014891.453012,-0.01112533951841792
83,1647014891.4574583,-0.011250343333231605
84,1647014891.461906,-0.01112533951841792
85,1647014891.4663525,-0.011000335703604236
86,1647014891.4708006,-0.010875331888790552
87,1647014891.4752479,-0.010875331888790552
88,1647014891.4797196,-0.011000335703604236
89,1647014891.484172,-0.011000335703604236
90,1647014891.4886172,-0.011000335703604236
91,1647014891.4930675,-0.011250343333231605
92,1647014891.4975119,-0.01112533951841792
93,1647014891.5019596,-0.01112533951841792
94,1647014891.506569,-0.01112533951841792
95,1647014891.511029,-0.011250343333231605
96,1647014891.51548,-0.01112533951841792
97,1647014891.5199275,-0.01112533951841792
98,1647014891.52438,-0.011000335703604236
99,1647014891.528828,-0.011000335703604236
100,1647014891.5332792,-0.011000335703604236
101,1647014891.5377257,-0.01112533951841792
102,1647014891.5421755,-0.01112533951841792
103,1647014891.5466235,-0.011250343333231605
104,1647014891.551074,-0.011250343333231605
105,1647014891.55552,-0.011375347148045289
106,1647014891.5599658,-0.011375347148045289
107,1647014891.5644197,-0.011375347148045289
108,1647014891.5688658,-0.011375347148045289
109,1647014891.5733159,-0.01112533951841792
110,1647014891.577762,-0.01112533951841792
111,1647014891.5822134,-0.01112533951841792
112,1647014891.5866578,-0.01112533951841792
113,1647014891.5911052,-0.01112533951841792
114,1647014891.5955508,-0.01112533951841792
115,1647014891.599996,-0.011250343333231605
116,1647014891.6044445,-0.011375347148045289
117,1647014891.6090288,-0.011500350962858974
118,1647014891.6134808,-0.011375347148045289
119,1647014891.6179297,-0.011375347148045289
120,1647014891.622379,-0.011250343333231605
121,1647014891.6268225,-0.011250343333231605
122,1647014891.6312706,-0.011250343333231605
123,1647014891.6357172,-0.01112533951841792
124,1647014891.6401598,-0.011250343333231605
125,1647014891.6446078,-0.011250343333231605
126,1647014891.6490517,-0.01112533951841792
127,1647014891.6535082,-0.011375347148045289
128,1647014891.657953,-0.011500350962858974
129,1647014891.6624017,-0.011500350962858974
130,1647014891.6668444,-0.011375347148045289
131,1647014891.6712952,-0.011375347148045289
132,1647014891.6757386,-0.011375347148045289
133,1647014891.6801825,-0.011375347148045289
134,1647014891.6846263,-0.011250343333231605
135,1647014891.6890755,-0.01112533951841792
136,1647014891.6935236,-0.011250343333231605
137,1647014891.6979687,-0.011250343333231605
138,1647014891.702417,-0.011250343333231605
139,1647014891.7068613,-0.011375347148045289
140,1647014891.711338,-0.011500350962858974
141,1647014891.7157853,-0.011500350962858974
142,1647014891.7202296,-0.011375347148045289
143,1647014891.724676,-0.011375347148045289
144,1647014891.7291212,-0.011375347148045289
145,1647014891.7335699,-0.011375347148045289
146,1647014891.7380145,-0.01112533951841792
147,1647014891.7424624,-0.01112533951841792
148,1647014891.7469084,-0.01112533951841792
149,1647014891.751359,-0.011250343333231605
150,1647014891.7558033,-0.011250343333231605
151,1647014891.7602472,-0.011375347148045289
152,1647014891.764696,-0.011375347148045289
153,1647014891.7691393,-0.011375347148045289
154,1647014891.7735875,-0.011375347148045289
155,1647014891.7780316,-0.011375347148045289
156,1647014891.7824807,-0.011375347148045289
157,1647014891.7869246,-0.011375347148045289
158,1647014891.791373,-0.011250343333231605
159,1647014891.7958171,-0.01112533951841792
160,1647014891.8002627,-0.01112533951841792
161,1647014891.8047066,-0.011250343333231605
162,1647014891.8091526,-0.011250343333231605
163,1647014891.8136287,-0.011250343333231605
164,1647014891.818078,-0.011375347148045289
165,1647014891.822526,-0.011375347148045289
166,1647014891.826971,-0.011500350962858974
167,1647014891.8314192,-0.011500350962858974
168,1647014891.8358645,-0.011375347148045289
169,1647014891.8403096,-0.011375347148045289
170,1647014891.8447845,-0.01112533951841792
171,1647014891.84923,-0.01112533951841792
172,1647014891.8536806,-0.01112533951841792
173,1647014891.8581247,-0.011250343333231605
174,1647014891.8626044,-0.011250343333231605
175,1647014891.867052,-0.011375347148045289
176,1647014891.8715034,-0.011375347148045289
177,1647014891.875949,-0.011500350962858974
178,1647014891.8803918,-0.011500350962858974
179,1647014891.884841,-0.011500350962858974
180,1647014891.8892846,-0.011500350962858974
181,1647014891.8937328,-0.011375347148045289
182,1647014891.8981779,-0.011250343333231605
183,1647014891.9026263,-0.011250343333231605
184,1647014891.9070702,-0.011375347148045289
185,1647014891.9115205,-0.011375347148045289
186,1647014891.9159925,-0.011250343333231605
187,1647014891.9204395,-0.011375347148045289
188,1647014891.9248867,-0.011500350962858974
189,1647014891.9293323,-0.011625354777672658
190,1647014891.9337804,-0.011625354777672658
191,1647014891.9382243,-0.011625354777672658
192,1647014891.9426718,-0.011500350962858974
193,1647014891.9471178,-0.011375347148045289
194,1647014891.951565,-0.011250343333231605
195,1647014891.9560087,-0.011375347148045289
196,1647014891.960453,-0.011375347148045289
197,1647014891.9649026,-0.011375347148045289
198,1647014891.969346,-0.011375347148045289
199,1647014891.9737947,-0.011500350962858974
200,1647014891.978238,-0.011625354777672658
201,1647014891.982688,-0.011625354777672658
202,1647014891.987134,-0.011750358592486344
203,1647014891.9915817,-0.011625354777672658
204,1647014891.9960253,-0.011625354777672658
205,1647014892.0004718,-0.011500350962858974
206,1647014892.004918,-0.011500350962858974
207,1647014892.0093622,-0.011500350962858974
208,1647014892.0138123,-0.011375347148045289
209,1647014892.0182846,-0.011500350962858974
210,1647014892.0227375,-0.011500350962858974
211,1647014892.027182,-0.011625354777672658
212,1647014892.0316298,-0.011750358592486344
213,1647014892.0360734,-0.011750358592486344
214,1647014892.0405195,-0.011750358592486344
215,1647014892.0449953,-0.011625354777672658
216,1647014892.0494401,-0.011625354777672658
217,1647014892.0538888,-0.011625354777672658
218,1647014892.0583355,-0.011625354777672658
219,1647014892.0627832,-0.011500350962858974
220,1647014892.0672271,-0.011500350962858974
221,1647014892.0716748,-0.011500350962858974
222,1647014892.0761204,-0.011625354777672658
223,1647014892.0805624,-0.011750358592486344
224,1647014892.0850415,-0.012000366222113713
225,1647014892.0894861,-0.012000366222113713
226,1647014892.0939357,-0.011875362407300027
227,1647014892.0983818,-0.011875362407300027
228,1647014892.1028295,-0.011875362407300027
229,1647014892.107274,-0.011875362407300027
230,1647014892.1117227,-0.011750358592486344
231,1647014892.1161666,-0.011625354777672658
232,1647014892.1206644,-0.011750358592486344
233,1647014892.1251116,-0.011750358592486344
234,1647014892.129563,-0.011875362407300027
235,1647014892.1340122,-0.012000366222113713
236,1647014892.1384566,-0.011875362407300027
237,1647014892.142904,-0.012000366222113713
238,1647014892.1473494,-0.011875362407300027
239,1647014892.1517975,-0.012000366222113713
240,1647014892.1562428,-0.012000366222113713
241,1647014892.16069,-0.012000366222113713
242,1647014892.165136,-0.011875362407300027
243,1647014892.1695783,-0.011750358592486344
244,1647014892.1740267,-0.011750358592486344
245,1647014892.178472,-0.011875362407300027
246,1647014892.1829212,-0.011875362407300027
247,1647014892.1878278,-0.012000366222113713
248,1647014892.19228,-0.012000366222113713
249,1647014892.1967301,-0.012125370036927397
250,1647014892.2011797,-0.012000366222113713
251,1647014892.2056253,-0.012125370036927397
252,1647014892.210069,-0.012125370036927397
253,1647014892.2145195,-0.012125370036927397
254,1647014892.2189658,-0.011875362407300027
255,1647014892.223445,-0.011875362407300027
256,1647014892.2278929,-0.011875362407300027
257,1647014892.2323434,-0.012000366222113713
258,1647014892.2367887,-0.012000366222113713
259,1647014892.241237,-0.012000366222113713
260,1647014892.2456803,-0.012125370036927397
261,1647014892.2501261,-0.01225037385174108
262,1647014892.2545733,-0.01225037385174108
263,1647014892.259017,-0.012125370036927397
264,1647014892.2634645,-0.012125370036927397
265,1647014892.26791,-0.011875362407300027
266,1647014892.2723584,-0.011875362407300027
267,1647014892.2768025,-0.011875362407300027
268,1647014892.28125,-0.012000366222113713
269,1647014892.2856963,-0.012000366222113713
270,1647014892.290143,-0.012000366222113713
271,1647014892.294592,-0.012000366222113713
272,1647014892.2990363,-0.012125370036927397
273,1647014892.3034828,-0.01225037385174108
274,1647014892.3079276,-0.01225037385174108
275,1647014892.3123763,-0.01225037385174108
276,1647014892.3168201,-0.012125370036927397
277,1647014892.3212693,-0.012125370036927397
278,1647014892.325742,-0.012125370036927397
279,1647014892.3301876,-0.012125370036927397
280,1647014892.3346355,-0.012000366222113713
281,1647014892.3390803,-0.012000366222113713
282,1647014892.3435268,-0.012000366222113713
283,1647014892.3479724,-0.012125370036927397
284,1647014892.3524196,-0.01225037385174108
285,1647014892.3568625,-0.012375377666554766
286,1647014892.3613122,-0.012375377666554766
287,1647014892.365757,-0.01225037385174108
288,1647014892.3702025,-0.012125370036927397
289,1647014892.3746512,-0.01225037385174108
290,1647014892.379098,-0.01225037385174108
291,1647014892.3835452,-0.012125370036927397
292,1647014892.3880155,-0.012125370036927397
293,1647014892.392466,-0.012125370036927397
294,1647014892.3969123,-0.012125370036927397
295,1647014892.4013612,-0.012125370036927397
296,1647014892.4058063,-0.012375377666554766
297,1647014892.410252,-0.01250038148136845
298,1647014892.4147015,-0.01250038148136845
299,1647014892.4191473,-0.012375377666554766
300,1647014892.423595,-0.012375377666554766
301,1647014892.4280686,-0.012375377666554766
302,1647014892.4325206,-0.01225037385174108
303,1647014892.4369648,-0.01225037385174108
304,1647014892.441413,-0.012125370036927397
305,1647014892.4458582,-0.012125370036927397
306,1647014892.4503024,-0.01225037385174108
307,1647014892.4547842,-0.01225037385174108
308,1647014892.4592292,-0.012375377666554766
309,1647014892.4636781,-0.01250038148136845
310,1647014892.4681263,-0.01250038148136845
311,1647014892.4725747,-0.01250038148136845
312,1647014892.477019,-0.01250038148136845
313,1647014892.4814668,-0.01250038148136845
314,1647014892.4859095,-0.01225037385174108
315,1647014892.4903536,-0.01225037385174108
316,1647014892.4948008,-0.01225037385174108
317,1647014892.4992456,-0.01225037385174108
318,1647014892.5036933,-0.01225037385174108
319,1647014892.5081387,-0.012375377666554766
320,1647014892.5125864,-0.01250038148136845
321,1647014892.5170302,-0.01250038148136845
322,1647014892.5214794,-0.01250038148136845
323,1647014892.5259254,-0.012625385296182135
324,1647014892.530398,-0.01250038148136845
325,1647014892.5348477,-0.012625385296182135
326,1647014892.5392914,-0.01250038148136845
327,1647014892.543737,-0.012375377666554766
328,1647014892.548184,-0.01225037385174108
329,1647014892.552632,-0.012375377666554766
330,1647014892.5570765,-0.01250038148136845
331,1647014892.561525,-0.01250038148136845
332,1647014892.5659692,-0.01250038148136845
333,1647014892.5704129,-0.012625385296182135
334,1647014892.5748606,-0.012625385296182135
335,1647014892.5793045,-0.012625385296182135
336,1647014892.5837524,-0.01250038148136845
337,1647014892.5881963,-0.01250038148136845
338,1647014892.5926445,-0.01225037385174108
339,1647014892.5970893,-0.01225037385174108
340,1647014892.6015387,-0.01225037385174108
341,1647014892.605983,-0.012375377666554766
342,1647014892.610428,-0.012375377666554766
343,1647014892.6148753,-0.01225037385174108
344,1647014892.6193492,-0.012375377666554766
345,1647014892.6237993,-0.012625385296182135
346,1647014892.6282454,-0.012625385296182135
347,1647014892.6327193,-0.01250038148136845
348,1647014892.6371672,-0.01250038148136845
349,1647014892.6416154,-0.01250038148136845
350,1647014892.6460614,-0.01250038148136845
351,1647014892.6505055,-0.01225037385174108
352,1647014892.6549494,-0.01225037385174108
353,1647014892.659384,-0.012375377666554766
354,1647014892.672593,-0.012625385296182135
355,1647014892.677095,-0.01275038911099582
356,1647014892.6815643,-0.01275038911099582
357,1647014892.6860623,-0.012625385296182135
358,1647014892.6905177,-0.012625385296182135
359,1647014892.6949737,-0.012625385296182135
360,1647014892.6994252,-0.01250038148136845
361,1647014892.7038736,-0.01250038148136845
362,1647014892.7083256,-0.01250038148136845
363,1647014892.7127721,-0.01250038148136845
364,1647014892.717219,-0.01250038148136845
365,1647014892.7216673,-0.01250038148136845
366,1647014892.7261133,-0.01275038911099582
367,1647014892.7305572,-0.01275038911099582
368,1647014892.7352662,-0.01275038911099582
369,1647014892.7397232,-0.01275038911099582
370,1647014892.74418,-0.012625385296182135
371,1647014892.7486272,-0.01275038911099582
372,1647014892.75308,-0.012625385296182135
373,1647014892.757526,-0.01250038148136845
374,1647014892.7619753,-0.01250038148136845
375,1647014892.7664213,-0.01250038148136845
376,1647014892.7708735,-0.01250038148136845
377,1647014892.775318,-0.012625385296182135
378,1647014892.7797625,-0.01275038911099582
379,1647014892.784211,-0.01275038911099582
380,1647014892.7886584,-0.01275038911099582
381,1647014892.793106,-0.01275038911099582
382,1647014892.797551,-0.012875392925809505
383,1647014892.8019977,-0.01275038911099582
384,1647014892.8064435,-0.01275038911099582
385,1647014892.8108912,-0.012625385296182135
386,1647014892.8153355,-0.01250038148136845
387,1647014892.819778,-0.012625385296182135
388,1647014892.8242276,-0.012625385296182135
389,1647014892.828672,-0.01275038911099582
390,1647014892.8331196,-0.012875392925809505
391,1647014892.8377032,-0.013000396740623189
392,1647014892.8421557,-0.013000396740623189
393,1647014892.8466384,-0.013000396740623189
394,1647014892.851114,-0.012875392925809505
395,1647014892.8555608,-0.012875392925809505
396,1647014892.8600066,-0.01275038911099582
397,1647014892.8644545,-0.01275038911099582
398,1647014892.8688998,-0.012625385296182135
399,1647014892.8733473,-0.01275038911099582
400,1647014892.8777938,-0.012625385296182135
401,1647014892.8822415,-0.01275038911099582
402,1647014892.8866863,-0.01275038911099582
403,1647014892.8911335,-0.012875392925809505
404,1647014892.8955798,-0.013000396740623189
405,1647014892.9000225,-0.013000396740623189
406,1647014892.904473,-0.013000396740623189
407,1647014892.908917,-0.013000396740623189
408,1647014892.913367,-0.01275038911099582
409,1647014892.9178112,-0.012625385296182135
410,1647014892.9222586,-0.01275038911099582
411,1647014892.9267027,-0.012875392925809505
412,1647014892.9311533,-0.012875392925809505
413,1647014892.935597,-0.012875392925809505
414,1647014892.9400692,-0.01275038911099582
415,1647014892.9445193,-0.013000396740623189
416,1647014892.9489667,-0.013000396740623189
417,1647014892.9534166,-0.013000396740623189
418,1647014892.9578614,-0.013000396740623189
419,1647014892.9623086,-0.012875392925809505
420,1647014892.9667523,-0.012875392925809505
421,1647014892.9712021,-0.01275038911099582
422,1647014892.975646,-0.012875392925809505
423,1647014892.9800904,-0.012875392925809505
424,1647014892.9845395,-0.01275038911099582
425,1647014892.9889855,-0.01275038911099582
426,1647014892.993433,-0.012875392925809505
427,1647014892.9978757,-0.013125400555436872
428,1647014893.0023243,-0.013125400555436872
429,1647014893.006772,-0.013125400555436872
430,1647014893.0112226,-0.013125400555436872
431,1647014893.0156686,-0.013000396740623189
432,1647014893.0201132,-0.012875392925809505
433,1647014893.0245626,-0.012875392925809505
434,1647014893.0290077,-0.012875392925809505
435,1647014893.0334773,-0.012875392925809505
436,1647014893.0379872,-0.01275038911099582
437,1647014893.0424867,-0.013000396740623189
438,1647014893.0469391,-0.013125400555436872
439,1647014893.0513859,-0.013250404370250556
440,1647014893.0558336,-0.013250404370250556
441,1647014893.0602798,-0.013250404370250556
442,1647014893.0647597,-0.013000396740623189
443,1647014893.0692065,-0.013125400555436872
444,1647014893.0736518,-0.013125400555436872
445,1647014893.0781007,-0.013000396740623189
446,1647014893.0825503,-0.013000396740623189
447,1647014893.0869951,-0.013000396740623189
448,1647014893.0914435,-0.013000396740623189
449,1647014893.0958905,-0.013000396740623189
450,1647014893.1003354,-0.013125400555436872
