,Time (s),Signal (V)
0,1643845245.8047752,0.02412573625904111
1,1643845245.8124635,0.024250740073854794
2,1643845245.8151987,0.024250740073854794
3,1643845245.8179119,0.024250740073854794
4,1643845245.820621,0.02412573625904111
5,1643845245.8233287,0.02412573625904111
6,1643845245.8260355,0.02412573625904111
7,1643845245.8287437,0.024250740073854794
8,1643845245.8314629,0.024250740073854794
9,1643845245.8341687,0.02412573625904111
10,1643845245.836874,0.02412573625904111
11,1643845245.8395803,0.024000732444227426
12,1643845245.8422856,0.024000732444227426
13,1643845245.8449903,0.024250740073854794
14,1643845245.8476973,0.02412573625904111
15,1643845245.8504016,0.024250740073854794
16,1643845245.853105,0.024250740073854794
17,1643845245.8558106,0.02412573625904111
18,1643845245.858516,0.024000732444227426
19,1643845245.8612194,0.02412573625904111
20,1643845245.8639228,0.02412573625904111
21,1643845245.8666298,0.024250740073854794
22,1643845245.8693447,0.02412573625904111
23,1643845245.8720527,0.024000732444227426
24,1643845245.8747623,0.02412573625904111
25,1643845245.8774698,0.02412573625904111
26,1643845245.880178,0.02412573625904111
27,1643845245.8828845,0.024375743888668477
28,1643845245.885592,0.02412573625904111
29,1643845245.8883016,0.024000732444227426
30,1643845245.8910136,0.024000732444227426
31,1643845245.8937204,0.023750724814600055
32,1643845245.8964295,0.024000732444227426
33,1643845245.8991365,0.02412573625904111
34,1643845245.9018433,0.02412573625904111
35,1643845245.9045494,0.02412573625904111
36,1643845245.9072719,0.024000732444227426
37,1643845245.9099796,0.024000732444227426
38,1643845245.9126878,0.024000732444227426
39,1643845245.9153974,0.02412573625904111
40,1643845245.9181058,0.02412573625904111
41,1643845245.9208128,0.024000732444227426
42,1643845245.9235198,0.02412573625904111
43,1643845245.9262276,0.024000732444227426
44,1643845245.928935,0.024000732444227426
45,1643845245.931642,0.02412573625904111
46,1643845245.934349,0.02412573625904111
47,1643845245.937058,0.024000732444227426
48,1643845245.939765,0.024000732444227426
49,1643845245.9424717,0.024000732444227426
50,1643845245.94518,0.02412573625904111
51,1643845245.9478862,0.02412573625904111
52,1643845245.9505925,0.02412573625904111
53,1643845245.953299,0.024000732444227426
54,1643845245.956007,0.024000732444227426
55,1643845245.9587145,0.024000732444227426
56,1643845245.9614205,0.024000732444227426
57,1643845245.9641273,0.02412573625904111
58,1643845245.9668357,0.02412573625904111
59,1643845245.9695435,0.02412573625904111
60,1643845245.9722497,0.024000732444227426
61,1643845245.974958,0.02387572862941374
62,1643845245.977664,0.024000732444227426
63,1643845245.9803705,0.02412573625904111
64,1643845245.9830768,0.02412573625904111
65,1643845245.9857855,0.024250740073854794
66,1643845245.9884927,0.024000732444227426
67,1643845245.9911995,0.024000732444227426
68,1643845245.993906,0.024000732444227426
69,1643845245.9966145,0.024250740073854794
70,1643845245.9993207,0.024250740073854794
71,1643845246.0020988,0.024000732444227426
72,1643845246.0048249,0.024000732444227426
73,1643845246.0075788,0.024000732444227426
74,1643845246.0103295,0.02412573625904111
75,1643845246.0131097,0.02412573625904111
76,1643845246.0158632,0.02412573625904111
77,1643845246.0186124,0.024000732444227426
78,1643845246.021361,0.024000732444227426
79,1643845246.0241091,0.02412573625904111
80,1643845246.026861,0.024000732444227426
81,1643845246.02961,0.024000732444227426
82,1643845246.0323586,0.02412573625904111
83,1643845246.03511,0.024250740073854794
84,1643845246.0378587,0.024000732444227426
85,1643845246.0406065,0.02387572862941374
86,1643845246.0433552,0.02412573625904111
87,1643845246.0461063,0.024250740073854794
88,1643845246.0488555,0.02412573625904111
89,1643845246.0516043,0.02412573625904111
90,1643845246.0543516,0.02412573625904111
91,1643845246.0571017,0.024000732444227426
92,1643845246.0598497,0.024000732444227426
93,1643845246.062597,0.02412573625904111
94,1643845246.065347,0.024250740073854794
95,1643845246.0680952,0.024250740073854794
96,1643845246.0708427,0.024250740073854794
97,1643845246.07359,0.024000732444227426
98,1643845246.0763402,0.024000732444227426
99,1643845246.0790882,0.02412573625904111
100,1643845246.0818357,0.02412573625904111
101,1643845246.0845847,0.02412573625904111
102,1643845246.0873332,0.02450074770348216
103,1643845246.0900805,0.02412573625904111
104,1643845246.0928283,0.02412573625904111
105,1643845246.0955794,0.024250740073854794
106,1643845246.0983267,0.024375743888668477
107,1643845246.1010754,0.02412573625904111
108,1643845246.1039014,0.02412573625904111
109,1643845246.1066704,0.024000732444227426
110,1643845246.1095042,0.02412573625904111
111,1643845246.112334,0.02412573625904111
112,1643845246.1151693,0.02412573625904111
113,1643845246.1179998,0.02412573625904111
114,1643845246.1208282,0.024250740073854794
115,1643845246.123657,0.024000732444227426
116,1643845246.1264894,0.024000732444227426
117,1643845246.1293182,0.024250740073854794
118,1643845246.1321468,0.02412573625904111
119,1643845246.1349814,0.02412573625904111
120,1643845246.1378102,0.02412573625904111
121,1643845246.1406395,0.02412573625904111
122,1643845246.1434677,0.02412573625904111
123,1643845246.146302,0.024375743888668477
124,1643845246.1491315,0.024375743888668477
125,1643845246.1519597,0.024000732444227426
126,1643845246.1547923,0.02412573625904111
127,1643845246.1576273,0.02412573625904111
128,1643845246.1604564,0.02412573625904111
129,1643845246.1632862,0.024375743888668477
130,1643845246.1661184,0.024250740073854794
131,1643845246.1689475,0.02412573625904111
132,1643845246.171776,0.024000732444227426
133,1643845246.1746037,0.024000732444227426
134,1643845246.177521,0.024000732444227426
135,1643845246.1803803,0.02412573625904111
136,1643845246.1832113,0.02450074770348216
137,1643845246.1860447,0.02450074770348216
138,1643845246.1888735,0.02450074770348216
139,1643845246.1917021,0.02450074770348216
140,1643845246.194529,0.02450074770348216
141,1643845246.1973581,0.024250740073854794
142,1643845246.2001789,0.02412573625904111
143,1643845246.2029986,0.02412573625904111
144,1643845246.2058249,0.02412573625904111
145,1643845246.2086549,0.02412573625904111
146,1643845246.2114577,0.024375743888668477
147,1643845246.214257,0.024375743888668477
148,1643845246.2170599,0.024375743888668477
149,1643845246.2198646,0.024250740073854794
150,1643845246.2226655,0.02412573625904111
151,1643845246.225469,0.02412573625904111
152,1643845246.2282703,0.02412573625904111
153,1643845246.2310688,0.024250740073854794
154,1643845246.2338681,0.024250740073854794
155,1643845246.2366729,0.024250740073854794
156,1643845246.2394722,0.02412573625904111
157,1643845246.2422702,0.02412573625904111
158,1643845246.2450733,0.024250740073854794
159,1643845246.247873,0.024250740073854794
160,1643845246.2506723,0.024250740073854794
161,1643845246.2534728,0.02412573625904111
162,1643845246.256276,0.02412573625904111
163,1643845246.2590759,0.02412573625904111
164,1643845246.2618759,0.024250740073854794
165,1643845246.2646983,0.024250740073854794
166,1643845246.2675006,0.024250740073854794
167,1643845246.2703006,0.02412573625904111
168,1643845246.2731004,0.024250740073854794
169,1643845246.2759032,0.02412573625904111
170,1643845246.2787027,0.02412573625904111
171,1643845246.2815027,0.024375743888668477
172,1643845246.2843013,0.024250740073854794
173,1643845246.2871053,0.024250740073854794
174,1643845246.2899108,0.024375743888668477
175,1643845246.2927113,0.02462575151829585
176,1643845246.2955348,0.024250740073854794
177,1643845246.2983372,0.024375743888668477
178,1643845246.301138,0.024250740073854794
179,1643845246.3039386,0.02412573625904111
180,1643845246.3067656,0.02412573625904111
181,1643845246.309561,0.024250740073854794
182,1643845246.3123543,0.024375743888668477
183,1643845246.3151493,0.02450074770348216
184,1643845246.3179505,0.024375743888668477
185,1643845246.3207493,0.024250740073854794
186,1643845246.3235497,0.024250740073854794
187,1643845246.3263533,0.02412573625904111
188,1643845246.3291543,0.024250740073854794
189,1643845246.3319535,0.024250740073854794
190,1643845246.3347557,0.02450074770348216
191,1643845246.337555,0.024375743888668477
192,1643845246.3403533,0.024375743888668477
193,1643845246.3431523,0.024375743888668477
194,1643845246.3459566,0.024375743888668477
195,1643845246.3487573,0.024375743888668477
196,1643845246.3515565,0.024250740073854794
197,1643845246.3543558,0.02450074770348216
198,1643845246.3571608,0.024250740073854794
199,1643845246.3599598,0.024375743888668477
200,1643845246.3627584,0.024375743888668477
201,1643845246.3655636,0.024375743888668477
202,1643845246.368367,0.024375743888668477
203,1643845246.371166,0.024250740073854794
204,1643845246.373967,0.024250740073854794
205,1643845246.37677,0.024375743888668477
206,1643845246.3795702,0.024375743888668477
207,1643845246.3823721,0.024250740073854794
208,1643845246.3851752,0.024375743888668477
209,1643845246.3879757,0.024250740073854794
210,1643845246.3907762,0.024250740073854794
211,1643845246.3935754,0.02450074770348216
212,1643845246.3963783,0.02450074770348216
213,1643845246.3991802,0.024250740073854794
214,1643845246.401979,0.024375743888668477
215,1643845246.4047823,0.024375743888668477
216,1643845246.407607,0.024375743888668477
217,1643845246.4104087,0.024375743888668477
218,1643845246.4132092,0.024375743888668477
219,1643845246.4160135,0.02450074770348216
220,1643845246.4188137,0.024375743888668477
221,1643845246.4216135,0.024375743888668477
222,1643845246.4244134,0.024375743888668477
223,1643845246.4272163,0.024250740073854794
224,1643845246.4300153,0.024375743888668477
225,1643845246.4328146,0.024375743888668477
226,1643845246.4356174,0.024375743888668477
227,1643845246.438418,0.024375743888668477
228,1643845246.4412167,0.024375743888668477
229,1643845246.4440165,0.024375743888668477
230,1643845246.44682,0.024375743888668477
231,1643845246.44962,0.024375743888668477
232,1643845246.4524188,0.024375743888668477
233,1643845246.4552224,0.024250740073854794
234,1643845246.4580278,0.024375743888668477
235,1643845246.460829,0.02450074770348216
236,1643845246.463628,0.02450074770348216
237,1643845246.4664319,0.02450074770348216
238,1643845246.4692314,0.02450074770348216
239,1643845246.4720309,0.02450074770348216
240,1643845246.4748342,0.024375743888668477
241,1643845246.4776337,0.02450074770348216
242,1643845246.480434,0.02450074770348216
243,1643845246.4832332,0.02450074770348216
244,1643845246.4860363,0.02462575151829585
245,1643845246.4888365,0.02450074770348216
246,1643845246.4916365,0.02450074770348216
247,1643845246.4944363,0.02450074770348216
248,1643845246.4972394,0.024875759147923216
249,1643845246.5000405,0.02450074770348216
250,1643845246.5028408,0.02450074770348216
251,1643845246.5056438,0.02450074770348216
252,1643845246.5084653,0.02450074770348216
253,1643845246.5112665,0.02450074770348216
254,1643845246.5140665,0.02462575151829585
255,1643845246.516869,0.02450074770348216
256,1643845246.519669,0.024375743888668477
257,1643845246.522468,0.024375743888668477
258,1643845246.525272,0.024375743888668477
259,1643845246.5280726,0.02450074770348216
260,1643845246.5308723,0.02462575151829585
261,1643845246.5336719,0.02450074770348216
262,1643845246.5365016,0.02462575151829585
263,1643845246.5393014,0.02450074770348216
264,1643845246.5421011,0.02450074770348216
265,1643845246.5449052,0.02462575151829585
266,1643845246.5477052,0.02462575151829585
267,1643845246.5505059,0.02462575151829585
268,1643845246.5533068,0.02462575151829585
269,1643845246.5561097,0.02462575151829585
270,1643845246.5589123,0.02462575151829585
271,1643845246.5617142,0.02462575151829585
272,1643845246.5645134,0.02450074770348216
273,1643845246.5673401,0.024375743888668477
274,1643845246.5701404,0.02450074770348216
275,1643845246.5729408,0.024375743888668477
276,1643845246.5757432,0.024375743888668477
277,1643845246.578564,0.02450074770348216
278,1643845246.581365,0.02462575151829585
279,1643845246.5841646,0.02462575151829585
280,1643845246.5869668,0.02462575151829585
281,1643845246.5897672,0.02462575151829585
282,1643845246.5925665,0.02450074770348216
283,1643845246.59537,0.02462575151829585
284,1643845246.5981703,0.024750755333109532
285,1643845246.6009705,0.0250007629627369
286,1643845246.6037695,0.02462575151829585
287,1643845246.6065722,0.02462575151829585
288,1643845246.6093953,0.024750755333109532
289,1643845246.6121964,0.024750755333109532
290,1643845246.6149998,0.02462575151829585
291,1643845246.6177993,0.02462575151829585
292,1643845246.6205986,0.02462575151829585
293,1643845246.6233974,0.02462575151829585
294,1643845246.6262012,0.024750755333109532
295,1643845246.6290016,0.02462575151829585
296,1643845246.6318004,0.024750755333109532
297,1643845246.6345992,0.02462575151829585
298,1643845246.6374004,0.02462575151829585
299,1643845246.6402,0.02462575151829585
300,1643845246.6429987,0.024750755333109532
301,1643845246.6458025,0.02462575151829585
302,1643845246.648602,0.02462575151829585
303,1643845246.651402,0.02462575151829585
304,1643845246.6542006,0.02462575151829585
305,1643845246.6570032,0.024750755333109532
306,1643845246.6598034,0.02462575151829585
307,1643845246.6626036,0.024750755333109532
308,1643845246.6654072,0.024750755333109532
309,1643845246.668207,0.024750755333109532
310,1643845246.671008,0.024750755333109532
311,1643845246.6738064,0.024750755333109532
312,1643845246.6766088,0.024750755333109532
313,1643845246.6794083,0.024875759147923216
314,1643845246.682208,0.024875759147923216
315,1643845246.6850111,0.024875759147923216
316,1643845246.6878119,0.024750755333109532
317,1643845246.6906133,0.024750755333109532
318,1643845246.693413,0.024750755333109532
319,1643845246.6962156,0.02462575151829585
320,1643845246.6990178,0.02450074770348216
321,1643845246.7018166,0.0250007629627369
322,1643845246.7046156,0.024750755333109532
323,1643845246.707443,0.02462575151829585
324,1643845246.7102652,0.024750755333109532
325,1643845246.7130663,0.024750755333109532
326,1643845246.7158706,0.02462575151829585
327,1643845246.71867,0.02462575151829585
328,1643845246.7214682,0.024750755333109532
329,1643845246.7242684,0.024750755333109532
330,1643845246.727071,0.024875759147923216
331,1643845246.7298708,0.024875759147923216
332,1643845246.7326708,0.024875759147923216
333,1643845246.7354732,0.024875759147923216
334,1643845246.7382734,0.02462575151829585
335,1643845246.7410727,0.02462575151829585
336,1643845246.743872,0.02462575151829585
337,1643845246.746675,0.024875759147923216
338,1643845246.7494738,0.024875759147923216
339,1643845246.7522733,0.024875759147923216
340,1643845246.7550762,0.024875759147923216
341,1643845246.7578752,0.024875759147923216
342,1643845246.7606745,0.024750755333109532
343,1643845246.7634737,0.024875759147923216
344,1643845246.7662761,0.024875759147923216
345,1643845246.7690759,0.024750755333109532
346,1643845246.7718751,0.024750755333109532
347,1643845246.7747009,0.024875759147923216
348,1643845246.7775035,0.024875759147923216
349,1643845246.780303,0.024750755333109532
350,1643845246.7831025,0.024875759147923216
351,1643845246.7859054,0.024750755333109532
352,1643845246.7887056,0.024750755333109532
353,1643845246.7915046,0.024750755333109532
354,1643845246.7943025,0.024750755333109532
355,1643845246.797106,0.0250007629627369
356,1643845246.7999063,0.0250007629627369
357,1643845246.802705,0.0250007629627369
358,1643845246.8055081,0.0250007629627369
359,1643845246.808308,0.024875759147923216
360,1643845246.8111305,0.024875759147923216
361,1643845246.813931,0.024875759147923216
362,1643845246.816733,0.024875759147923216
363,1643845246.819525,0.0250007629627369
364,1643845246.8223176,0.024875759147923216
365,1643845246.8251138,0.024875759147923216
366,1643845246.8279161,0.0250007629627369
367,1643845246.8307161,0.024875759147923216
368,1643845246.8335161,0.024875759147923216
369,1643845246.8363192,0.024875759147923216
370,1643845246.839119,0.024750755333109532
371,1643845246.8419178,0.024750755333109532
372,1643845246.84472,0.024875759147923216
373,1643845246.8475187,0.0250007629627369
374,1643845246.850317,0.024875759147923216
375,1643845246.853118,0.0250007629627369
376,1643845246.8559208,0.0250007629627369
377,1643845246.8587208,0.024875759147923216
378,1643845246.8615417,0.024875759147923216
379,1643845246.864342,0.024875759147923216
380,1643845246.8671453,0.0250007629627369
381,1643845246.869947,0.0250007629627369
382,1643845246.872746,0.0250007629627369
383,1643845246.8755486,0.0250007629627369
384,1643845246.8783498,0.024875759147923216
385,1643845246.8811488,0.0250007629627369
386,1643845246.8839478,0.0250007629627369
387,1643845246.886752,0.0250007629627369
388,1643845246.889553,0.0250007629627369
389,1643845246.892384,0.0250007629627369
390,1643845246.8952084,0.0250007629627369
391,1643845246.8980088,0.0250007629627369
392,1643845246.900808,0.0250007629627369
393,1643845246.9036083,0.0250007629627369
394,1643845246.9064114,0.025125766777550587
395,1643845246.909211,0.024875759147923216
396,1643845246.9120336,0.024875759147923216
397,1643845246.9148383,0.024875759147923216
398,1643845246.9176385,0.024875759147923216
399,1643845246.9204385,0.0250007629627369
400,1643845246.923238,0.0250007629627369
401,1643845246.926038,0.0250007629627369
402,1643845246.92884,0.025125766777550587
403,1643845246.9316392,0.025125766777550587
404,1643845246.9344387,0.025125766777550587
405,1643845246.9372416,0.025125766777550587
406,1643845246.940044,0.025125766777550587
407,1643845246.9428442,0.025125766777550587
408,1643845246.9456465,0.025125766777550587
409,1643845246.9484458,0.025125766777550587
410,1643845246.9512453,0.02525077059236427
411,1643845246.954046,0.02525077059236427
412,1643845246.9568498,0.025125766777550587
413,1643845246.9596503,0.0250007629627369
414,1643845246.9624496,0.0250007629627369
415,1643845246.9652529,0.025125766777550587
416,1643845246.9680538,0.025125766777550587
417,1643845246.9708536,0.025125766777550587
418,1643845246.973654,0.025125766777550587
419,1643845246.9764578,0.0250007629627369
420,1643845246.9792566,0.025125766777550587
421,1643845246.982056,0.0250007629627369
422,1643845246.984859,0.025125766777550587
423,1643845246.987658,0.025125766777550587
424,1643845246.9904578,0.0250007629627369
425,1643845246.993257,0.025125766777550587
426,1643845246.9960601,0.02525077059236427
427,1643845246.9988592,0.02525077059236427
428,1643845247.001659,0.02525077059236427
429,1643845247.0044587,0.02525077059236427
430,1643845247.0072896,0.025125766777550587
431,1643845247.0100913,0.02525077059236427
432,1643845247.0129151,0.025125766777550587
433,1643845247.0157225,0.02525077059236427
434,1643845247.0185227,0.02525077059236427
435,1643845247.021322,0.02525077059236427
436,1643845247.024124,0.02525077059236427
437,1643845247.0269275,0.025125766777550587
438,1643845247.029728,0.025125766777550587
439,1643845247.0325296,0.02525077059236427
440,1643845247.0353332,0.025125766777550587
441,1643845247.0381327,0.025125766777550587
442,1643845247.0409338,0.025125766777550587
443,1643845247.043733,0.02525077059236427
444,1643845247.0465364,0.02525077059236427
445,1643845247.049337,0.02525077059236427
446,1643845247.052136,0.02525077059236427
447,1643845247.0549388,0.025125766777550587
448,1643845247.0577388,0.025125766777550587
449,1643845247.0605378,0.025125766777550587
450,1643845247.0633378,0.02525077059236427
451,1643845247.066141,0.025125766777550587
452,1643845247.0689409,0.025375774407177955
453,1643845247.0717406,0.025125766777550587
454,1643845247.0745397,0.02525077059236427
455,1643845247.077342,0.02525077059236427
456,1643845247.0801408,0.02525077059236427
457,1643845247.0829399,0.025375774407177955
458,1643845247.0857441,0.025125766777550587
459,1643845247.0885446,0.02525077059236427
460,1643845247.0913432,0.025375774407177955
461,1643845247.094141,0.025375774407177955
462,1643845247.0969446,0.025375774407177955
463,1643845247.099746,0.025375774407177955
