,Time (s),Signal (V)
0,1643746287.5665948,-0.018250556962797936
1,1643746287.5740514,-0.018250556962797936
2,1643746287.5767415,-0.018250556962797936
3,1643746287.579428,-0.018250556962797936
4,1643746287.582108,-0.01837556077761162
5,1643746287.5847738,-0.01837556077761162
6,1643746287.5874379,-0.01837556077761162
7,1643746287.5901017,-0.018500564592425304
8,1643746287.5927634,-0.018500564592425304
9,1643746287.5954256,-0.01862556840723899
10,1643746287.5980873,-0.01862556840723899
11,1643746287.6007512,-0.01862556840723899
12,1643746287.603413,-0.01887557603686636
13,1643746287.6060576,-0.01887557603686636
14,1643746287.6087222,-0.01887557603686636
15,1643746287.611383,-0.01887557603686636
16,1643746287.6140435,-0.01887557603686636
17,1643746287.6167064,-0.01887557603686636
18,1643746287.6193733,-0.01887557603686636
19,1643746287.6220388,-0.018750572222052675
20,1643746287.624703,-0.01862556840723899
21,1643746287.6273677,-0.01862556840723899
22,1643746287.6300325,-0.018500564592425304
23,1643746287.6326962,-0.018500564592425304
24,1643746287.6353593,-0.01837556077761162
25,1643746287.6380231,-0.018250556962797936
26,1643746287.6406882,-0.018125553147984252
27,1643746287.6433518,-0.01800054933317057
28,1643746287.646015,-0.018125553147984252
29,1643746287.648697,-0.018125553147984252
30,1643746287.6513612,-0.01800054933317057
31,1643746287.6540253,-0.018125553147984252
32,1643746287.6566913,-0.01800054933317057
33,1643746287.6593556,-0.01800054933317057
34,1643746287.6620193,-0.01800054933317057
35,1643746287.6646836,-0.01800054933317057
36,1643746287.6673503,-0.018125553147984252
37,1643746287.6700149,-0.018125553147984252
38,1643746287.672679,-0.018125553147984252
39,1643746287.675342,-0.01800054933317057
40,1643746287.678007,-0.018125553147984252
41,1643746287.6806703,-0.018125553147984252
42,1643746287.6833339,-0.018125553147984252
43,1643746287.6859968,-0.01800054933317057
44,1643746287.6886625,-0.017875545518356885
45,1643746287.691327,-0.017875545518356885
46,1643746287.693991,-0.0177505417035432
47,1643746287.696655,-0.0177505417035432
48,1643746287.699319,-0.0177505417035432
49,1643746287.7019827,-0.0177505417035432
50,1643746287.704646,-0.01750053407391583
51,1643746287.7073097,-0.017375530259102146
52,1643746287.7099724,-0.017250526444288462
53,1643746287.7126353,-0.01712552262947478
54,1643746287.715299,-0.01712552262947478
55,1643746287.7179625,-0.01712552262947478
56,1643746287.720625,-0.01712552262947478
57,1643746287.723288,-0.017000518814661095
58,1643746287.7259512,-0.017000518814661095
59,1643746287.7286277,-0.016750511185033724
60,1643746287.7312908,-0.016875514999847407
61,1643746287.733955,-0.016750511185033724
62,1643746287.7366178,-0.016750511185033724
63,1643746287.7392805,-0.01662550737022004
64,1643746287.7419434,-0.016500503555406356
65,1643746287.744606,-0.01637549974059267
66,1643746287.7472684,-0.016250495925778985
67,1643746287.7499313,-0.01637549974059267
68,1643746287.7525942,-0.016250495925778985
69,1643746287.7552574,-0.0161254921109653
70,1643746287.7579205,-0.0161254921109653
71,1643746287.7605836,-0.0161254921109653
72,1643746287.763247,-0.0161254921109653
73,1643746287.7659106,-0.016000488296151617
74,1643746287.768574,-0.016000488296151617
75,1643746287.771237,-0.01587548448133793
76,1643746287.7738996,-0.01587548448133793
77,1643746287.7765625,-0.01587548448133793
78,1643746287.7792258,-0.016000488296151617
79,1643746287.7818892,-0.016000488296151617
80,1643746287.784552,-0.016000488296151617
81,1643746287.7872157,-0.01587548448133793
82,1643746287.7898788,-0.01587548448133793
83,1643746287.7925422,-0.016000488296151617
84,1643746287.7952054,-0.016000488296151617
85,1643746287.7978692,-0.016000488296151617
86,1643746287.8005335,-0.016000488296151617
87,1643746287.8031967,-0.0161254921109653
88,1643746287.80586,-0.016250495925778985
89,1643746287.808526,-0.016250495925778985
90,1643746287.8111897,-0.016500503555406356
91,1643746287.8138535,-0.01662550737022004
92,1643746287.8165183,-0.016875514999847407
93,1643746287.8191822,-0.017000518814661095
94,1643746287.8218453,-0.01712552262947478
95,1643746287.8245094,-0.017375530259102146
96,1643746287.8271785,-0.01750053407391583
97,1643746287.8298414,-0.017625537888729517
98,1643746287.832504,-0.0177505417035432
99,1643746287.8351667,-0.01800054933317057
100,1643746287.8378313,-0.018125553147984252
101,1643746287.8404946,-0.018125553147984252
102,1643746287.8431578,-0.018250556962797936
103,1643746287.8458207,-0.01837556077761162
104,1643746287.8484855,-0.018500564592425304
105,1643746287.851149,-0.01862556840723899
106,1643746287.8538125,-0.018500564592425304
107,1643746287.8564763,-0.01837556077761162
108,1643746287.8591397,-0.01837556077761162
109,1643746287.8618028,-0.018250556962797936
110,1643746287.8644655,-0.018250556962797936
111,1643746287.8671284,-0.018250556962797936
112,1643746287.8697915,-0.018125553147984252
113,1643746287.8724542,-0.018250556962797936
114,1643746287.8751307,-0.018125553147984252
115,1643746287.877795,-0.018125553147984252
116,1643746287.880459,-0.01800054933317057
117,1643746287.8831217,-0.01800054933317057
118,1643746287.8857841,-0.01800054933317057
119,1643746287.8884475,-0.0177505417035432
120,1643746287.8911104,-0.0177505417035432
121,1643746287.8937736,-0.0177505417035432
122,1643746287.8964367,-0.017625537888729517
123,1643746287.8991013,-0.017625537888729517
124,1643746287.9017644,-0.0177505417035432
125,1643746287.9044273,-0.017625537888729517
126,1643746287.9070907,-0.0177505417035432
127,1643746287.9097598,-0.0177505417035432
128,1643746287.9124236,-0.0177505417035432
129,1643746287.9150863,-0.017875545518356885
130,1643746287.917751,-0.017875545518356885
131,1643746287.9204144,-0.01800054933317057
132,1643746287.9230895,-0.01800054933317057
133,1643746287.9257526,-0.018125553147984252
134,1643746287.9284172,-0.018250556962797936
135,1643746287.93108,-0.018250556962797936
136,1643746287.933744,-0.01837556077761162
137,1643746287.9364083,-0.018500564592425304
138,1643746287.9390714,-0.018500564592425304
139,1643746287.9417346,-0.018500564592425304
140,1643746287.9443982,-0.018500564592425304
141,1643746287.9470627,-0.018500564592425304
142,1643746287.9497256,-0.01862556840723899
143,1643746287.9523888,-0.018750572222052675
144,1643746287.9550517,-0.018500564592425304
145,1643746287.9577155,-0.018500564592425304
146,1643746287.9603796,-0.018500564592425304
147,1643746287.9630427,-0.018500564592425304
148,1643746287.9657063,-0.01837556077761162
149,1643746287.9683714,-0.01837556077761162
150,1643746287.9710352,-0.01837556077761162
151,1643746287.973698,-0.01837556077761162
152,1643746287.9763606,-0.018250556962797936
153,1643746287.9790242,-0.018125553147984252
154,1643746287.9816868,-0.018125553147984252
155,1643746287.98435,-0.01800054933317057
156,1643746287.9870129,-0.017875545518356885
157,1643746287.9896758,-0.017875545518356885
158,1643746287.9923387,-0.0177505417035432
159,1643746287.9950018,-0.0177505417035432
160,1643746287.997666,-0.0177505417035432
161,1643746288.000329,-0.0177505417035432
162,1643746288.002992,-0.0177505417035432
163,1643746288.005655,-0.017875545518356885
164,1643746288.0083213,-0.017875545518356885
165,1643746288.0109847,-0.01800054933317057
166,1643746288.0136476,-0.01800054933317057
167,1643746288.0163128,-0.018250556962797936
168,1643746288.018976,-0.01837556077761162
169,1643746288.0216393,-0.018250556962797936
170,1643746288.0243022,-0.018250556962797936
171,1643746288.0269668,-0.018250556962797936
172,1643746288.0296304,-0.018125553147984252
173,1643746288.0322936,-0.018250556962797936
174,1643746288.03496,-0.018250556962797936
175,1643746288.0376263,-0.018125553147984252
176,1643746288.04029,-0.01800054933317057
177,1643746288.042953,-0.01800054933317057
178,1643746288.045616,-0.0177505417035432
179,1643746288.0482805,-0.0177505417035432
180,1643746288.0509439,-0.0177505417035432
181,1643746288.0536065,-0.0177505417035432
182,1643746288.0562706,-0.01750053407391583
183,1643746288.0589335,-0.01750053407391583
184,1643746288.061597,-0.017375530259102146
185,1643746288.06426,-0.017250526444288462
186,1643746288.066936,-0.01712552262947478
187,1643746288.0695994,-0.01712552262947478
188,1643746288.0722635,-0.017000518814661095
189,1643746288.0749266,-0.016875514999847407
190,1643746288.0775912,-0.016875514999847407
191,1643746288.0802543,-0.016875514999847407
192,1643746288.0829175,-0.016750511185033724
193,1643746288.0855799,-0.016875514999847407
194,1643746288.0882444,-0.016750511185033724
195,1643746288.090908,-0.016875514999847407
196,1643746288.0935714,-0.016875514999847407
197,1643746288.096236,-0.016875514999847407
198,1643746288.0988991,-0.016875514999847407
199,1643746288.1015623,-0.017000518814661095
200,1643746288.1042256,-0.017000518814661095
201,1643746288.1068902,-0.017000518814661095
202,1643746288.1095545,-0.017000518814661095
203,1643746288.1122172,-0.017000518814661095
204,1643746288.1148808,-0.017000518814661095
205,1643746288.1175454,-0.01712552262947478
206,1643746288.1202085,-0.017000518814661095
207,1643746288.1229444,-0.017000518814661095
208,1643746288.125628,-0.016875514999847407
209,1643746288.1283717,-0.016750511185033724
210,1643746288.1311102,-0.01662550737022004
211,1643746288.133847,-0.01637549974059267
212,1643746288.1365879,-0.016250495925778985
213,1643746288.1393237,-0.0161254921109653
214,1643746288.1420586,-0.016000488296151617
215,1643746288.1448474,-0.01587548448133793
216,1643746288.14759,-0.015750480666524246
217,1643746288.1503265,-0.015750480666524246
218,1643746288.1530628,-0.015625476851710562
219,1643746288.1557994,-0.015500473036896879
220,1643746288.1585388,-0.015625476851710562
221,1643746288.161276,-0.015625476851710562
222,1643746288.164013,-0.015625476851710562
223,1643746288.1667514,-0.015750480666524246
224,1643746288.169488,-0.01587548448133793
225,1643746288.1722226,-0.0161254921109653
226,1643746288.1749587,-0.0161254921109653
227,1643746288.1776943,-0.016250495925778985
228,1643746288.1804311,-0.016500503555406356
229,1643746288.183166,-0.01662550737022004
230,1643746288.1859014,-0.016750511185033724
231,1643746288.1886687,-0.016875514999847407
232,1643746288.1914058,-0.016750511185033724
233,1643746288.194141,-0.016875514999847407
234,1643746288.1968799,-0.01712552262947478
235,1643746288.1996295,-0.017250526444288462
236,1643746288.2023697,-0.017250526444288462
237,1643746288.2051058,-0.017250526444288462
238,1643746288.2078414,-0.017375530259102146
239,1643746288.210579,-0.01750053407391583
240,1643746288.2133138,-0.01750053407391583
241,1643746288.2160501,-0.017625537888729517
242,1643746288.218786,-0.0177505417035432
243,1643746288.221521,-0.017875545518356885
244,1643746288.2243524,-0.018125553147984252
245,1643746288.2271044,-0.018125553147984252
246,1643746288.2298691,-0.018250556962797936
247,1643746288.2326314,-0.01837556077761162
248,1643746288.2353911,-0.018750572222052675
249,1643746288.2381523,-0.01887557603686636
250,1643746288.240922,-0.019000579851680043
251,1643746288.2436802,-0.019250587481307414
252,1643746288.2464426,-0.01950059511093478
253,1643746288.2492013,-0.01950059511093478
254,1643746288.2519608,-0.019875606555375836
255,1643746288.25472,-0.02000061037018952
256,1643746288.2574832,-0.020125614185003204
257,1643746288.2602448,-0.02025061799981689
258,1643746288.2630095,-0.020375621814630575
259,1643746288.2657943,-0.02050062562944426
260,1643746288.268554,-0.020625629444257942
261,1643746288.2713184,-0.020625629444257942
262,1643746288.274078,-0.02075063325907163
263,1643746288.276839,-0.02075063325907163
264,1643746288.2795973,-0.020875637073885314
265,1643746288.2823553,-0.020875637073885314
266,1643746288.2851117,-0.020875637073885314
267,1643746288.2878723,-0.020875637073885314
268,1643746288.29063,-0.02075063325907163
269,1643746288.2933893,-0.020875637073885314
270,1643746288.2961524,-0.02075063325907163
271,1643746288.298912,-0.020625629444257942
272,1643746288.3016713,-0.02075063325907163
273,1643746288.304429,-0.02075063325907163
274,1643746288.3071904,-0.020625629444257942
275,1643746288.3099496,-0.02075063325907163
276,1643746288.3127077,-0.02075063325907163
277,1643746288.3154666,-0.020625629444257942
278,1643746288.3182287,-0.020625629444257942
279,1643746288.3209872,-0.020625629444257942
280,1643746288.323745,-0.020625629444257942
281,1643746288.3265038,-0.02075063325907163
282,1643746288.3292632,-0.02075063325907163
283,1643746288.3320208,-0.02075063325907163
284,1643746288.3347785,-0.020875637073885314
285,1643746288.3375378,-0.02075063325907163
286,1643746288.3402963,-0.02075063325907163
287,1643746288.3430552,-0.02075063325907163
288,1643746288.3458135,-0.020625629444257942
289,1643746288.348572,-0.020625629444257942
290,1643746288.3513298,-0.02050062562944426
291,1643746288.3540864,-0.02025061799981689
292,1643746288.3568437,-0.020125614185003204
293,1643746288.359603,-0.02000061037018952
294,1643746288.3623612,-0.02000061037018952
295,1643746288.3651187,-0.019750602740562152
296,1643746288.367882,-0.019750602740562152
297,1643746288.3706422,-0.019625598925748465
298,1643746288.3734014,-0.019625598925748465
299,1643746288.3761632,-0.01950059511093478
300,1643746288.3789217,-0.01950059511093478
301,1643746288.3816798,-0.01950059511093478
302,1643746288.3844383,-0.01950059511093478
303,1643746288.3871984,-0.01950059511093478
304,1643746288.3899567,-0.01950059511093478
305,1643746288.3927138,-0.019625598925748465
306,1643746288.3954716,-0.019625598925748465
307,1643746288.398233,-0.019625598925748465
308,1643746288.4009898,-0.019750602740562152
309,1643746288.4037476,-0.019750602740562152
310,1643746288.406511,-0.019750602740562152
311,1643746288.4092696,-0.019750602740562152
312,1643746288.4120276,-0.019875606555375836
313,1643746288.4147863,-0.019750602740562152
314,1643746288.4175465,-0.019750602740562152
315,1643746288.4203072,-0.019625598925748465
316,1643746288.4230871,-0.019625598925748465
317,1643746288.4258459,-0.019625598925748465
318,1643746288.4286044,-0.019625598925748465
319,1643746288.4313667,-0.01950059511093478
320,1643746288.4341238,-0.019375591296121097
321,1643746288.436882,-0.019375591296121097
322,1643746288.4396396,-0.01912558366649373
323,1643746288.4423969,-0.019000579851680043
324,1643746288.4451551,-0.01887557603686636
325,1643746288.4479122,-0.018750572222052675
326,1643746288.4506698,-0.01862556840723899
327,1643746288.453428,-0.01862556840723899
328,1643746288.4561863,-0.01837556077761162
329,1643746288.458945,-0.018125553147984252
330,1643746288.4617016,-0.018250556962797936
331,1643746288.4644578,-0.018125553147984252
332,1643746288.4672153,-0.01800054933317057
333,1643746288.4699728,-0.01800054933317057
334,1643746288.4727316,-0.01800054933317057
335,1643746288.4754887,-0.01800054933317057
336,1643746288.4782486,-0.01800054933317057
337,1643746288.4810076,-0.01800054933317057
338,1643746288.4837644,-0.018125553147984252
339,1643746288.486523,-0.01800054933317057
340,1643746288.489289,-0.01800054933317057
341,1643746288.4920495,-0.018125553147984252
342,1643746288.4948063,-0.018125553147984252
343,1643746288.4975686,-0.01800054933317057
344,1643746288.5003269,-0.018125553147984252
345,1643746288.503084,-0.018125553147984252
346,1643746288.5058408,-0.018125553147984252
347,1643746288.508601,-0.017875545518356885
348,1643746288.5113575,-0.017875545518356885
349,1643746288.5141153,-0.0177505417035432
350,1643746288.5168762,-0.017625537888729517
351,1643746288.519633,-0.01750053407391583
352,1643746288.5223901,-0.017375530259102146
353,1643746288.5251489,-0.017375530259102146
354,1643746288.5279362,-0.01712552262947478
355,1643746288.5307019,-0.017250526444288462
356,1643746288.5334594,-0.017250526444288462
357,1643746288.5362203,-0.01712552262947478
358,1643746288.538977,-0.01712552262947478
359,1643746288.541734,-0.017000518814661095
360,1643746288.544491,-0.016875514999847407
361,1643746288.5472531,-0.016750511185033724
362,1643746288.5500116,-0.016875514999847407
363,1643746288.552769,-0.016750511185033724
364,1643746288.5555284,-0.01662550737022004
365,1643746288.5582888,-0.01662550737022004
366,1643746288.5610456,-0.01662550737022004
367,1643746288.5638032,-0.016750511185033724
368,1643746288.5665643,-0.016750511185033724
369,1643746288.5693235,-0.01662550737022004
370,1643746288.5720823,-0.016500503555406356
371,1643746288.5748394,-0.016500503555406356
372,1643746288.5775998,-0.01662550737022004
373,1643746288.5803585,-0.016250495925778985
374,1643746288.5831163,-0.01637549974059267
375,1643746288.5858738,-0.016250495925778985
376,1643746288.5886643,-0.016250495925778985
377,1643746288.5914254,-0.01587548448133793
378,1643746288.594184,-0.015750480666524246
379,1643746288.5969412,-0.015750480666524246
380,1643746288.599698,-0.015625476851710562
381,1643746288.6024554,-0.015625476851710562
382,1643746288.6052132,-0.015500473036896879
383,1643746288.607973,-0.01525046540726951
384,1643746288.6107311,-0.015125461592455824
385,1643746288.613489,-0.015125461592455824
386,1643746288.616272,-0.01500045777764214
387,1643746288.6190312,-0.01500045777764214
388,1643746288.6217897,-0.01500045777764214
389,1643746288.6245472,-0.015125461592455824
390,1643746288.6273046,-0.015125461592455824
391,1643746288.6300888,-0.015125461592455824
392,1643746288.6328487,-0.015125461592455824
393,1643746288.6356087,-0.015375469222083193
394,1643746288.638372,-0.015500473036896879
395,1643746288.641129,-0.015500473036896879
396,1643746288.6438868,-0.015625476851710562
397,1643746288.6466477,-0.015750480666524246
398,1643746288.6494064,-0.015750480666524246
399,1643746288.6521645,-0.015750480666524246
400,1643746288.6549218,-0.015625476851710562
401,1643746288.6576827,-0.015750480666524246
402,1643746288.660442,-0.015500473036896879
403,1643746288.6632006,-0.015500473036896879
404,1643746288.665959,-0.015375469222083193
405,1643746288.6687133,-0.015500473036896879
406,1643746288.6714742,-0.01525046540726951
407,1643746288.6742322,-0.015125461592455824
408,1643746288.6769938,-0.01500045777764214
409,1643746288.6797516,-0.014750450148014772
410,1643746288.6825094,-0.014500442518387403
411,1643746288.6852684,-0.014375438703573717
412,1643746288.6880302,-0.014250434888760034
413,1643746288.6907897,-0.014125431073946348
414,1643746288.693549,-0.01387542344431898
415,1643746288.69631,-0.013625415814691611
416,1643746288.6990688,-0.013625415814691611
417,1643746288.7018495,-0.013625415814691611
418,1643746288.7046094,-0.013500411999877926
419,1643746288.7073705,-0.013500411999877926
420,1643746288.7101288,-0.013500411999877926
421,1643746288.7128878,-0.013375408185064242
422,1643746288.715646,-0.013375408185064242
423,1643746288.7184045,-0.013500411999877926
424,1643746288.7211628,-0.013375408185064242
425,1643746288.7239203,-0.013500411999877926
426,1643746288.7266781,-0.013500411999877926
427,1643746288.7294354,-0.013500411999877926
428,1643746288.7322176,-0.013625415814691611
429,1643746288.734979,-0.013625415814691611
430,1643746288.7377362,-0.013625415814691611
431,1643746288.7404933,-0.013625415814691611
432,1643746288.7432523,-0.013625415814691611
433,1643746288.74601,-0.013500411999877926
434,1643746288.7491071,-0.013625415814691611
435,1643746288.7518733,-0.013625415814691611
436,1643746288.7546332,-0.013750419629505295
437,1643746288.7573924,-0.01387542344431898
438,1643746288.7601516,-0.01387542344431898
439,1643746288.7629125,-0.014000427259132664
440,1643746288.7656698,-0.014375438703573717
441,1643746288.7684293,-0.014500442518387403
442,1643746288.7711895,-0.014625446333201087
443,1643746288.7739468,-0.014875453962828456
444,1643746288.7767045,-0.01525046540726951
445,1643746288.7794635,-0.015500473036896879
446,1643746288.782222,-0.015625476851710562
447,1643746288.7849813,-0.016250495925778985
448,1643746288.7877402,-0.016250495925778985
449,1643746288.7904987,-0.016500503555406356
450,1643746288.793257,-0.016875514999847407
451,1643746288.7960138,-0.017000518814661095
452,1643746288.7988074,-0.01712552262947478
