,Time (s),Signal (V)
0,1643745258.6670833,0.002250068666646321
1,1643745258.6768448,0.002125064851832637
2,1643745258.6812243,0.002000061037018952
3,1643745258.685563,0.0018750572222052675
4,1643745258.6899242,0.001750053407391583
5,1643745258.6942647,0.002000061037018952
6,1643745258.6985984,0.002250068666646321
7,1643745258.702934,0.002125064851832637
8,1643745258.7072682,0.002000061037018952
9,1643745258.711602,0.002125064851832637
10,1643745258.715933,0.002000061037018952
11,1643745258.7203114,0.002000061037018952
12,1643745258.7246752,0.002000061037018952
13,1643745258.7290063,0.002125064851832637
14,1643745258.733343,0.002000061037018952
15,1643745258.7376695,0.002000061037018952
16,1643745258.7420013,0.001750053407391583
17,1643745258.7463322,0.001750053407391583
18,1643745258.7506628,0.0018750572222052675
19,1643745258.7549906,0.002000061037018952
20,1643745258.7593277,0.002000061037018952
21,1643745258.763693,0.002125064851832637
22,1643745258.7681084,0.0018750572222052675
23,1643745258.7724817,0.001750053407391583
24,1643745258.7768207,0.0018750572222052675
25,1643745258.781172,0.0018750572222052675
26,1643745258.7855144,0.002000061037018952
27,1643745258.7898579,0.0018750572222052675
28,1643745258.7941868,0.0018750572222052675
29,1643745258.798517,0.001750053407391583
30,1643745258.8028557,0.001750053407391583
31,1643745258.807216,0.0018750572222052675
32,1643745258.811688,0.0018750572222052675
33,1643745258.816166,0.0018750572222052675
34,1643745258.82056,0.002000061037018952
35,1643745258.8249028,0.001750053407391583
36,1643745258.8292437,0.001750053407391583
37,1643745258.8335812,0.001750053407391583
38,1643745258.8379154,0.001750053407391583
39,1643745258.8422437,0.0016250495925778986
40,1643745258.8465712,0.0015000457777642141
41,1643745258.851402,0.001250038148136845
42,1643745258.8558743,0.001250038148136845
43,1643745258.860391,0.0015000457777642141
44,1643745258.8647776,0.001750053407391583
45,1643745258.8692076,0.001750053407391583
46,1643745258.8736284,0.0018750572222052675
47,1643745258.8780887,0.001750053407391583
48,1643745258.8825293,0.0015000457777642141
49,1643745258.8869796,0.001750053407391583
50,1643745258.8914168,0.001750053407391583
51,1643745258.895855,0.001750053407391583
52,1643745258.9004066,0.001750053407391583
53,1643745258.9048457,0.0016250495925778986
54,1643745258.909271,0.0016250495925778986
55,1643745258.9136374,0.0016250495925778986
56,1643745258.918014,0.001750053407391583
57,1643745258.9223506,0.002000061037018952
58,1643745258.9266944,0.0018750572222052675
59,1643745258.9311051,0.002125064851832637
60,1643745258.9354503,0.002000061037018952
61,1643745258.9397898,0.0018750572222052675
62,1643745258.9441524,0.002125064851832637
63,1643745258.9485521,0.002125064851832637
64,1643745258.9529057,0.002000061037018952
65,1643745258.9572387,0.002000061037018952
66,1643745258.9615793,0.002000061037018952
67,1643745258.96594,0.0018750572222052675
68,1643745258.9705122,0.002000061037018952
69,1643745258.9749548,0.002125064851832637
70,1643745258.979334,0.002250068666646321
71,1643745258.9836826,0.002250068666646321
72,1643745258.988013,0.0023750724814600053
73,1643745258.992358,0.002125064851832637
74,1643745258.9966996,0.002125064851832637
75,1643745259.0010326,0.002250068666646321
76,1643745259.0053566,0.002250068666646321
77,1643745259.0096812,0.002250068666646321
78,1643745259.014068,0.002125064851832637
79,1643745259.0185144,0.0018750572222052675
80,1643745259.0228865,0.0018750572222052675
81,1643745259.0274107,0.002125064851832637
82,1643745259.0318513,0.002250068666646321
83,1643745259.0362668,0.002250068666646321
84,1643745259.0406752,0.002125064851832637
85,1643745259.0450685,0.002000061037018952
86,1643745259.049443,0.001750053407391583
87,1643745259.053974,0.0018750572222052675
88,1643745259.0584078,0.002000061037018952
89,1643745259.0628169,0.002000061037018952
90,1643745259.0682788,0.001750053407391583
91,1643745259.0733452,0.0015000457777642141
92,1643745259.0782936,0.0013750419629505295
93,1643745259.082971,0.0016250495925778986
94,1643745259.0874627,0.0018750572222052675
95,1643745259.0919437,0.0018750572222052675
96,1643745259.0964036,0.002000061037018952
97,1643745259.100868,0.001750053407391583
98,1643745259.1053233,0.0016250495925778986
99,1643745259.1097617,0.0016250495925778986
100,1643745259.1142132,0.001750053407391583
101,1643745259.1186414,0.001750053407391583
102,1643745259.1230876,0.001750053407391583
103,1643745259.1275218,0.0015000457777642141
104,1643745259.1319792,0.0015000457777642141
105,1643745259.1364489,0.0015000457777642141
106,1643745259.1409042,0.001750053407391583
107,1643745259.1453607,0.002000061037018952
108,1643745259.1498127,0.0018750572222052675
109,1643745259.1542454,0.0018750572222052675
110,1643745259.1586306,0.0016250495925778986
111,1643745259.1630607,0.0016250495925778986
112,1643745259.1674953,0.0018750572222052675
113,1643745259.1719666,0.001750053407391583
114,1643745259.1763856,0.0018750572222052675
115,1643745259.1808295,0.001750053407391583
116,1643745259.1852791,0.0015000457777642141
117,1643745259.1896906,0.0015000457777642141
118,1643745259.1942072,0.001750053407391583
119,1643745259.1986992,0.002000061037018952
120,1643745259.2031398,0.002125064851832637
121,1643745259.2074857,0.002125064851832637
122,1643745259.211826,0.0018750572222052675
123,1643745259.2161596,0.0018750572222052675
124,1643745259.2205029,0.002000061037018952
125,1643745259.2248845,0.002000061037018952
126,1643745259.22922,0.002125064851832637
127,1643745259.2335756,0.0018750572222052675
128,1643745259.2379158,0.0018750572222052675
129,1643745259.242251,0.0016250495925778986
130,1643745259.246586,0.0016250495925778986
131,1643745259.2509208,0.001750053407391583
132,1643745259.2552924,0.002000061037018952
133,1643745259.2596323,0.0018750572222052675
134,1643745259.2639678,0.002000061037018952
135,1643745259.268307,0.0016250495925778986
136,1643745259.2726407,0.001750053407391583
137,1643745259.2769787,0.0018750572222052675
138,1643745259.281312,0.0018750572222052675
139,1643745259.285648,0.001750053407391583
140,1643745259.2899864,0.001750053407391583
141,1643745259.2943184,0.0015000457777642141
142,1643745259.2986562,0.0013750419629505295
143,1643745259.302989,0.0015000457777642141
144,1643745259.3073246,0.0016250495925778986
145,1643745259.3116574,0.001750053407391583
146,1643745259.3159916,0.0018750572222052675
147,1643745259.3203635,0.0016250495925778986
148,1643745259.3246965,0.0015000457777642141
149,1643745259.3290365,0.0016250495925778986
150,1643745259.333379,0.0016250495925778986
151,1643745259.3377695,0.001750053407391583
152,1643745259.3421266,0.001750053407391583
153,1643745259.3464704,0.0016250495925778986
154,1643745259.3508034,0.0013750419629505295
155,1643745259.355135,0.0015000457777642141
156,1643745259.3594651,0.0016250495925778986
157,1643745259.363798,0.0018750572222052675
158,1643745259.3681283,0.001750053407391583
159,1643745259.3724592,0.0018750572222052675
160,1643745259.3767946,0.001750053407391583
161,1643745259.381127,0.0015000457777642141
162,1643745259.3854582,0.0016250495925778986
163,1643745259.389786,0.001750053407391583
164,1643745259.3941143,0.001750053407391583
165,1643745259.3984504,0.0016250495925778986
166,1643745259.4027865,0.0015000457777642141
167,1643745259.4071193,0.0013750419629505295
168,1643745259.411451,0.0016250495925778986
169,1643745259.4157825,0.0018750572222052675
170,1643745259.4201157,0.002000061037018952
171,1643745259.424458,0.002000061037018952
172,1643745259.428797,0.0018750572222052675
173,1643745259.4331293,0.001750053407391583
174,1643745259.4374738,0.002000061037018952
175,1643745259.4418116,0.002250068666646321
176,1643745259.4461453,0.0023750724814600053
177,1643745259.4504874,0.0023750724814600053
178,1643745259.4548557,0.002125064851832637
179,1643745259.4591925,0.002000061037018952
180,1643745259.46353,0.002000061037018952
181,1643745259.467863,0.002000061037018952
182,1643745259.4721954,0.0023750724814600053
183,1643745259.476529,0.00250007629627369
184,1643745259.4808605,0.00250007629627369
185,1643745259.4851925,0.00250007629627369
186,1643745259.489561,0.002250068666646321
187,1643745259.493894,0.002250068666646321
188,1643745259.498226,0.00250007629627369
189,1643745259.5025601,0.0023750724814600053
190,1643745259.506898,0.0023750724814600053
191,1643745259.511229,0.002125064851832637
192,1643745259.5155606,0.002000061037018952
193,1643745259.5198913,0.0018750572222052675
194,1643745259.524224,0.0018750572222052675
195,1643745259.5285556,0.002250068666646321
196,1643745259.5328867,0.00250007629627369
197,1643745259.5372202,0.0023750724814600053
198,1643745259.5415533,0.0023750724814600053
199,1643745259.545884,0.002250068666646321
200,1643745259.550227,0.002125064851832637
201,1643745259.5545683,0.002250068666646321
202,1643745259.5589075,0.002000061037018952
203,1643745259.5632403,0.002000061037018952
204,1643745259.5675728,0.0018750572222052675
205,1643745259.571903,0.0016250495925778986
206,1643745259.576234,0.0015000457777642141
207,1643745259.5805652,0.001750053407391583
208,1643745259.584897,0.001750053407391583
209,1643745259.5892274,0.0018750572222052675
210,1643745259.5935588,0.001750053407391583
211,1643745259.5980506,0.0016250495925778986
212,1643745259.602391,0.0015000457777642141
213,1643745259.6067266,0.0016250495925778986
214,1643745259.61112,0.001750053407391583
215,1643745259.6154556,0.001750053407391583
216,1643745259.619787,0.0016250495925778986
217,1643745259.6241186,0.0016250495925778986
218,1643745259.6284566,0.0013750419629505295
219,1643745259.6327896,0.0016250495925778986
220,1643745259.6371217,0.001750053407391583
221,1643745259.6414552,0.0018750572222052675
222,1643745259.645786,0.002000061037018952
223,1643745259.6501186,0.002000061037018952
224,1643745259.6544526,0.002000061037018952
225,1643745259.6587849,0.0018750572222052675
226,1643745259.663118,0.002125064851832637
227,1643745259.667448,0.002125064851832637
228,1643745259.6717782,0.002125064851832637
229,1643745259.6761186,0.002000061037018952
230,1643745259.6805134,0.0018750572222052675
231,1643745259.684847,0.0018750572222052675
232,1643745259.6891842,0.0018750572222052675
233,1643745259.6935196,0.002000061037018952
234,1643745259.6978555,0.002250068666646321
235,1643745259.7023497,0.002125064851832637
236,1643745259.7066905,0.002125064851832637
237,1643745259.7110276,0.002000061037018952
238,1643745259.7153616,0.0018750572222052675
239,1643745259.7197027,0.002125064851832637
240,1643745259.7240727,0.002125064851832637
241,1643745259.7284083,0.002250068666646321
242,1643745259.732745,0.002000061037018952
243,1643745259.73708,0.002000061037018952
244,1643745259.7414143,0.0018750572222052675
245,1643745259.7457469,0.002000061037018952
246,1643745259.7500806,0.002250068666646321
247,1643745259.754413,0.0023750724814600053
248,1643745259.7587438,0.0026250801110873747
249,1643745259.7630744,0.00250007629627369
250,1643745259.7674072,0.002250068666646321
251,1643745259.7717335,0.002250068666646321
252,1643745259.7759898,0.002250068666646321
253,1643745259.7802858,0.002125064851832637
254,1643745259.784545,0.002125064851832637
255,1643745259.7888093,0.002000061037018952
256,1643745259.7931137,0.001750053407391583
257,1643745259.7973716,0.001750053407391583
258,1643745259.8016315,0.002000061037018952
259,1643745259.805946,0.002000061037018952
260,1643745259.8102136,0.002000061037018952
261,1643745259.8144717,0.002000061037018952
262,1643745259.82298,0.001750053407391583
263,1643745259.8273108,0.001750053407391583
264,1643745259.831582,0.0018750572222052675
265,1643745259.8358376,0.002000061037018952
266,1643745259.8400912,0.002000061037018952
267,1643745259.844346,0.0018750572222052675
268,1643745259.8485992,0.0016250495925778986
269,1643745259.8528543,0.0016250495925778986
270,1643745259.8571138,0.001750053407391583
271,1643745259.8613763,0.002000061037018952
272,1643745259.8656363,0.002250068666646321
273,1643745259.8698952,0.0023750724814600053
274,1643745259.8741565,0.0023750724814600053
275,1643745259.8784146,0.002000061037018952
276,1643745259.8826737,0.002000061037018952
277,1643745259.886933,0.002250068666646321
278,1643745259.891184,0.002250068666646321
279,1643745259.8954344,0.002125064851832637
280,1643745259.8996894,0.002000061037018952
281,1643745259.9039505,0.0018750572222052675
282,1643745259.9082081,0.001750053407391583
283,1643745259.9124758,0.002000061037018952
284,1643745259.916756,0.002125064851832637
285,1643745259.9210138,0.002250068666646321
286,1643745259.925274,0.00250007629627369
287,1643745259.9295306,0.0023750724814600053
288,1643745259.9337916,0.002125064851832637
289,1643745259.938053,0.002250068666646321
290,1643745259.9423127,0.0023750724814600053
291,1643745259.9465756,0.0023750724814600053
292,1643745259.9508348,0.0023750724814600053
293,1643745259.9550917,0.0023750724814600053
294,1643745259.9593492,0.002250068666646321
295,1643745259.9636085,0.002250068666646321
296,1643745259.967867,0.0026250801110873747
297,1643745259.9721174,0.0030000915555284282
298,1643745259.9763706,0.0031250953703421125
299,1643745259.98063,0.0030000915555284282
300,1643745259.9848878,0.0028750877407147436
301,1643745259.9891467,0.0028750877407147436
302,1643745259.9934046,0.0028750877407147436
303,1643745259.9976645,0.0028750877407147436
304,1643745260.0019207,0.0030000915555284282
305,1643745260.0062943,0.002750083925901059
306,1643745260.0105662,0.0026250801110873747
307,1643745260.014856,0.00250007629627369
308,1643745260.0191495,0.00250007629627369
309,1643745260.023436,0.0028750877407147436
310,1643745260.027724,0.0028750877407147436
311,1643745260.0320115,0.002750083925901059
312,1643745260.036305,0.0028750877407147436
313,1643745260.040593,0.002750083925901059
314,1643745260.0448792,0.00250007629627369
315,1643745260.0492017,0.0026250801110873747
316,1643745260.0534894,0.0028750877407147436
317,1643745260.0577796,0.002750083925901059
318,1643745260.0620656,0.0026250801110873747
319,1643745260.066355,0.0023750724814600053
320,1643745260.07064,0.002250068666646321
321,1643745260.0749254,0.002250068666646321
322,1643745260.079212,0.0026250801110873747
323,1643745260.0835032,0.002750083925901059
324,1643745260.0877924,0.0028750877407147436
325,1643745260.0920732,0.0026250801110873747
326,1643745260.096356,0.0023750724814600053
327,1643745260.1006458,0.002125064851832637
328,1643745260.1049316,0.0023750724814600053
329,1643745260.1092465,0.00250007629627369
330,1643745260.113535,0.0023750724814600053
331,1643745260.1178257,0.0023750724814600053
332,1643745260.1221118,0.002125064851832637
333,1643745260.1264007,0.002125064851832637
334,1643745260.130688,0.002125064851832637
335,1643745260.134975,0.002250068666646321
336,1643745260.139265,0.0023750724814600053
337,1643745260.1435506,0.00250007629627369
338,1643745260.147837,0.00250007629627369
339,1643745260.1521232,0.0023750724814600053
340,1643745260.1564116,0.002250068666646321
341,1643745260.16069,0.002250068666646321
342,1643745260.1649685,0.002250068666646321
343,1643745260.1692507,0.0023750724814600053
344,1643745260.173541,0.0023750724814600053
345,1643745260.1778286,0.0023750724814600053
346,1643745260.18211,0.002250068666646321
347,1643745260.1863916,0.002125064851832637
348,1643745260.1906796,0.0023750724814600053
349,1643745260.194968,0.002750083925901059
350,1643745260.1992805,0.0028750877407147436
351,1643745260.2035687,0.0030000915555284282
352,1643745260.207861,0.002750083925901059
353,1643745260.2121787,0.0026250801110873747
354,1643745260.2164764,0.002750083925901059
355,1643745260.2207656,0.0028750877407147436
356,1643745260.2250543,0.0028750877407147436
357,1643745260.2293468,0.002750083925901059
358,1643745260.2336345,0.0026250801110873747
359,1643745260.2379246,0.0023750724814600053
360,1643745260.2422113,0.0026250801110873747
361,1643745260.2465012,0.0028750877407147436
362,1643745260.2507873,0.0030000915555284282
363,1643745260.2550735,0.0031250953703421125
364,1643745260.2593627,0.0030000915555284282
365,1643745260.2636473,0.0028750877407147436
366,1643745260.2679365,0.0026250801110873747
367,1643745260.2722232,0.0028750877407147436
368,1643745260.2765117,0.002750083925901059
369,1643745260.2808013,0.0028750877407147436
370,1643745260.2850897,0.002750083925901059
371,1643745260.2893772,0.0026250801110873747
372,1643745260.293658,0.0023750724814600053
373,1643745260.2979403,0.00250007629627369
374,1643745260.3022294,0.0028750877407147436
375,1643745260.306516,0.0028750877407147436
376,1643745260.3108017,0.0028750877407147436
377,1643745260.315115,0.0028750877407147436
378,1643745260.3194122,0.002750083925901059
379,1643745260.3236995,0.002750083925901059
380,1643745260.3279881,0.0028750877407147436
381,1643745260.3322723,0.0028750877407147436
382,1643745260.3365626,0.0028750877407147436
383,1643745260.3408482,0.002750083925901059
384,1643745260.3451328,0.00250007629627369
385,1643745260.3494215,0.00250007629627369
386,1643745260.3537402,0.0026250801110873747
387,1643745260.3580315,0.0028750877407147436
388,1643745260.3623168,0.0031250953703421125
389,1643745260.3666081,0.0030000915555284282
390,1643745260.370896,0.0030000915555284282
391,1643745260.3751843,0.002750083925901059
392,1643745260.3794708,0.0026250801110873747
393,1643745260.3837593,0.002750083925901059
394,1643745260.3880472,0.002750083925901059
395,1643745260.3923354,0.0026250801110873747
396,1643745260.396625,0.00250007629627369
397,1643745260.4009242,0.002250068666646321
398,1643745260.405206,0.002250068666646321
399,1643745260.4097745,0.0023750724814600053
400,1643745260.4140704,0.0026250801110873747
401,1643745260.4183593,0.002750083925901059
402,1643745260.4226992,0.0028750877407147436
403,1643745260.4270382,0.0038751182592242197
404,1643745260.431365,0.0026250801110873747
405,1643745260.4356678,0.00250007629627369
406,1643745260.439966,0.0026250801110873747
407,1643745260.4442608,0.002750083925901059
408,1643745260.4485621,0.0036251106295968507
409,1643745260.4529245,0.00250007629627369
410,1643745260.4572797,0.0023750724814600053
411,1643745260.4615953,0.0023750724814600053
412,1643745260.4659176,0.00250007629627369
413,1643745260.4703064,0.0038751182592242197
414,1643745260.4746096,0.0030000915555284282
415,1643745260.4789004,0.0031250953703421125
416,1643745260.4832203,0.0030000915555284282
417,1643745260.4875576,0.0028750877407147436
418,1643745260.4919038,0.004000122074037904
419,1643745260.4962437,0.0030000915555284282
420,1643745260.500586,0.003250099185155797
421,1643745260.5049157,0.003250099185155797
422,1643745260.509251,0.0030000915555284282
423,1643745260.5136244,0.0036251106295968507
424,1643745260.518032,0.0028750877407147436
425,1643745260.5224638,0.0031250953703421125
426,1643745260.5268588,0.003250099185155797
427,1643745260.5312324,0.003500106814783166
428,1643745260.5355885,0.003750114444410535
429,1643745260.539987,0.0031250953703421125
430,1643745260.5443578,0.0030000915555284282
431,1643745260.5487077,0.0031250953703421125
432,1643745260.5530531,0.0031250953703421125
433,1643745260.5573988,0.003250099185155797
434,1643745260.5621593,0.0030000915555284282
435,1643745260.5665188,0.002750083925901059
436,1643745260.5708838,0.0026250801110873747
437,1643745260.5752327,0.003750114444410535
438,1643745260.5795846,0.0030000915555284282
439,1643745260.5839314,0.0030000915555284282
440,1643745260.5882719,0.003250099185155797
441,1643745260.592636,0.0030000915555284282
442,1643745260.5970333,0.0038751182592242197
443,1643745260.6013887,0.0028750877407147436
444,1643745260.6057265,0.0030000915555284282
445,1643745260.6100662,0.0030000915555284282
446,1643745260.614406,0.004125125888851589
447,1643745260.6187928,0.005750175481429487
448,1643745260.623209,0.002750083925901059
449,1643745260.6275554,0.0026250801110873747
450,1643745260.63189,0.0028750877407147436
451,1643745260.6362236,0.003250099185155797
452,1643745260.6405694,0.004250129703665274
453,1643745260.6449022,0.003250099185155797
454,1643745260.6492321,0.0028750877407147436
