,Time (s),Signal (V)
0,1643843492.3199863,-0.005125156407361065
1,1643843492.3276227,-0.005125156407361065
2,1643843492.3303561,-0.005125156407361065
3,1643843492.3330686,-0.005125156407361065
4,1643843492.335777,-0.005250160222174749
5,1643843492.3384848,-0.005375164036988434
6,1643843492.3411927,-0.005375164036988434
7,1643843492.3438993,-0.005375164036988434
8,1643843492.3466191,-0.005375164036988434
9,1643843492.3493278,-0.005500167851802118
10,1643843492.352034,-0.005375164036988434
11,1643843492.3547392,-0.005375164036988434
12,1643843492.3574443,-0.005375164036988434
13,1643843492.3601499,-0.005250160222174749
14,1643843492.3628533,-0.005250160222174749
15,1643843492.3655574,-0.005125156407361065
16,1643843492.368264,-0.005250160222174749
17,1643843492.3709762,-0.005250160222174749
18,1643843492.3736882,-0.005250160222174749
19,1643843492.376399,-0.005250160222174749
20,1643843492.3791063,-0.005250160222174749
21,1643843492.3818133,-0.005250160222174749
22,1643843492.384521,-0.005250160222174749
23,1643843492.3872306,-0.005250160222174749
24,1643843492.3899374,-0.005375164036988434
25,1643843492.392645,-0.005375164036988434
26,1643843492.3953526,-0.005500167851802118
27,1643843492.398062,-0.005500167851802118
28,1643843492.4007692,-0.0056251716666158025
29,1643843492.4034762,-0.0056251716666158025
30,1643843492.4061823,-0.0056251716666158025
31,1643843492.4088917,-0.0056251716666158025
32,1643843492.411599,-0.0056251716666158025
33,1643843492.4143062,-0.005500167851802118
34,1643843492.417015,-0.0056251716666158025
35,1643843492.419722,-0.0056251716666158025
36,1643843492.4224293,-0.005750175481429487
37,1643843492.425136,-0.005750175481429487
38,1643843492.427845,-0.005750175481429487
39,1643843492.4305525,-0.0056251716666158025
40,1643843492.4332592,-0.005500167851802118
41,1643843492.4359665,-0.0056251716666158025
42,1643843492.4386744,-0.005500167851802118
43,1643843492.4413817,-0.0056251716666158025
44,1643843492.4440885,-0.0056251716666158025
45,1643843492.4467976,-0.0056251716666158025
46,1643843492.4495049,-0.0056251716666158025
47,1643843492.4522114,-0.0056251716666158025
48,1643843492.4549186,-0.0056251716666158025
49,1643843492.457627,-0.0056251716666158025
50,1643843492.4603345,-0.0056251716666158025
51,1643843492.463042,-0.0056251716666158025
52,1643843492.465749,-0.005500167851802118
53,1643843492.468458,-0.0056251716666158025
54,1643843492.471165,-0.0056251716666158025
55,1643843492.473872,-0.0056251716666158025
56,1643843492.4765806,-0.005500167851802118
57,1643843492.4792874,-0.005500167851802118
58,1643843492.4819937,-0.005375164036988434
59,1643843492.4847012,-0.0056251716666158025
60,1643843492.48741,-0.005500167851802118
61,1643843492.4901166,-0.005500167851802118
62,1643843492.4928234,-0.005500167851802118
63,1643843492.4955297,-0.005500167851802118
64,1643843492.4982376,-0.005500167851802118
65,1643843492.5009444,-0.0056251716666158025
66,1643843492.503651,-0.0056251716666158025
67,1643843492.506359,-0.005500167851802118
68,1643843492.5090659,-0.005500167851802118
69,1643843492.5117729,-0.005500167851802118
70,1643843492.5144804,-0.0056251716666158025
71,1643843492.5171883,-0.005750175481429487
72,1643843492.5198953,-0.0056251716666158025
73,1643843492.5226023,-0.005750175481429487
74,1643843492.5253086,-0.005750175481429487
75,1643843492.5280168,-0.0056251716666158025
76,1643843492.5307238,-0.005750175481429487
77,1643843492.5334299,-0.005750175481429487
78,1643843492.5361364,-0.005875179296243172
79,1643843492.538861,-0.005875179296243172
80,1643843492.541569,-0.005875179296243172
81,1643843492.5442758,-0.005875179296243172
82,1643843492.5469956,-0.005875179296243172
83,1643843492.549705,-0.0060001831110568565
84,1643843492.5524123,-0.005875179296243172
85,1643843492.555119,-0.005750175481429487
86,1643843492.5578284,-0.005750175481429487
87,1643843492.5605347,-0.0056251716666158025
88,1643843492.5632417,-0.0056251716666158025
89,1643843492.5659494,-0.0056251716666158025
90,1643843492.5686588,-0.0056251716666158025
91,1643843492.5713656,-0.005750175481429487
92,1643843492.5740726,-0.005750175481429487
93,1643843492.5767808,-0.005750175481429487
94,1643843492.5794885,-0.005875179296243172
95,1643843492.582195,-0.005750175481429487
96,1643843492.5849013,-0.005875179296243172
97,1643843492.5876098,-0.005875179296243172
98,1643843492.5903163,-0.0060001831110568565
99,1643843492.5930228,-0.00612518692587054
100,1643843492.5957294,-0.00612518692587054
101,1643843492.5984375,-0.00612518692587054
102,1643843492.6011443,-0.00612518692587054
103,1643843492.6038501,-0.00612518692587054
104,1643843492.6065586,-0.00612518692587054
105,1643843492.609265,-0.0060001831110568565
106,1643843492.6119726,-0.0060001831110568565
107,1643843492.6146798,-0.005875179296243172
108,1643843492.6173885,-0.0060001831110568565
109,1643843492.620095,-0.0060001831110568565
110,1643843492.622801,-0.0060001831110568565
111,1643843492.6255078,-0.005875179296243172
112,1643843492.628216,-0.005750175481429487
113,1643843492.6309228,-0.005875179296243172
114,1643843492.6336293,-0.005875179296243172
115,1643843492.6363378,-0.0060001831110568565
116,1643843492.6390448,-0.0060001831110568565
117,1643843492.6417508,-0.00612518692587054
118,1643843492.6444583,-0.00612518692587054
119,1643843492.6471665,-0.0060001831110568565
120,1643843492.6498735,-0.0060001831110568565
121,1643843492.6525803,-0.0060001831110568565
122,1643843492.6552866,-0.0060001831110568565
123,1643843492.6579955,-0.0060001831110568565
124,1643843492.660702,-0.0060001831110568565
125,1643843492.663408,-0.0060001831110568565
126,1643843492.6661146,-0.0060001831110568565
127,1643843492.668826,-0.00612518692587054
128,1643843492.6715338,-0.00612518692587054
129,1643843492.6742408,-0.00612518692587054
130,1643843492.6769493,-0.00612518692587054
131,1643843492.6796565,-0.00612518692587054
132,1643843492.6823628,-0.0060001831110568565
133,1643843492.6850698,-0.00612518692587054
134,1643843492.687778,-0.00612518692587054
135,1643843492.6904995,-0.006250190740684225
136,1643843492.693207,-0.00612518692587054
137,1643843492.695914,-0.006250190740684225
138,1643843492.6986203,-0.006250190740684225
139,1643843492.7013273,-0.006250190740684225
140,1643843492.7040334,-0.00637519455549791
141,1643843492.7067416,-0.00637519455549791
142,1643843492.709448,-0.00637519455549791
143,1643843492.7121544,-0.00637519455549791
144,1643843492.71486,-0.006250190740684225
145,1643843492.7175677,-0.00637519455549791
146,1643843492.720274,-0.00637519455549791
147,1643843492.7229805,-0.006250190740684225
148,1643843492.7256868,-0.006250190740684225
149,1643843492.7283967,-0.00612518692587054
150,1643843492.731104,-0.00612518692587054
151,1643843492.7338104,-0.00612518692587054
152,1643843492.7365184,-0.00612518692587054
153,1643843492.739225,-0.006250190740684225
154,1643843492.7419312,-0.006250190740684225
155,1643843492.7446377,-0.006250190740684225
156,1643843492.7473457,-0.006250190740684225
157,1643843492.7500522,-0.006250190740684225
158,1643843492.7527585,-0.006250190740684225
159,1643843492.755464,-0.006250190740684225
160,1643843492.7581723,-0.006250190740684225
161,1643843492.7608795,-0.00612518692587054
162,1643843492.7635856,-0.00612518692587054
163,1643843492.7662935,-0.00612518692587054
164,1643843492.7689993,-0.006250190740684225
165,1643843492.7717052,-0.00612518692587054
166,1643843492.7744117,-0.00612518692587054
167,1643843492.7771192,-0.00612518692587054
168,1643843492.7798257,-0.00612518692587054
169,1643843492.7825313,-0.00612518692587054
170,1643843492.785237,-0.006250190740684225
171,1643843492.7879448,-0.00637519455549791
172,1643843492.7906513,-0.006250190740684225
173,1643843492.793358,-0.00637519455549791
174,1643843492.7960663,-0.006500198370311594
175,1643843492.7987747,-0.00637519455549791
176,1643843492.8014808,-0.00637519455549791
177,1643843492.804187,-0.00637519455549791
178,1643843492.8068945,-0.00637519455549791
179,1643843492.809601,-0.00637519455549791
180,1643843492.8123074,-0.00637519455549791
181,1643843492.8150136,-0.00637519455549791
182,1643843492.8177214,-0.006500198370311594
183,1643843492.820438,-0.006500198370311594
184,1643843492.823145,-0.006500198370311594
185,1643843492.8258526,-0.00637519455549791
186,1643843492.8285608,-0.00637519455549791
187,1643843492.831267,-0.006500198370311594
188,1643843492.8339732,-0.006500198370311594
189,1643843492.8366811,-0.006750205999938963
190,1643843492.839388,-0.0068752098147526475
191,1643843492.8421695,-0.006750205999938963
192,1643843492.8448935,-0.006750205999938963
193,1643843492.847664,-0.006750205999938963
194,1643843492.8504279,-0.006750205999938963
195,1643843492.8531935,-0.006625202185125278
196,1643843492.8559556,-0.006625202185125278
197,1643843492.8587189,-0.006625202185125278
198,1643843492.8614805,-0.006625202185125278
199,1643843492.8642423,-0.006500198370311594
200,1643843492.8670056,-0.006500198370311594
201,1643843492.8697672,-0.006500198370311594
202,1643843492.8725302,-0.00637519455549791
203,1643843492.8752913,-0.00637519455549791
204,1643843492.878055,-0.00637519455549791
205,1643843492.880816,-0.006250190740684225
206,1643843492.883578,-0.00637519455549791
207,1643843492.886341,-0.006250190740684225
208,1643843492.889102,-0.00637519455549791
209,1643843492.891863,-0.00637519455549791
210,1643843492.8946228,-0.00637519455549791
211,1643843492.897387,-0.006250190740684225
212,1643843492.9001486,-0.00637519455549791
213,1643843492.90291,-0.00637519455549791
214,1643843492.9056702,-0.00637519455549791
215,1643843492.9084334,-0.00637519455549791
216,1643843492.911194,-0.006250190740684225
217,1643843492.913956,-0.00637519455549791
218,1643843492.9167192,-0.006500198370311594
219,1643843492.9194791,-0.006625202185125278
220,1643843492.9222395,-0.006625202185125278
221,1643843492.925,-0.006625202185125278
222,1643843492.9277625,-0.0068752098147526475
223,1643843492.930524,-0.007000213629566332
224,1643843492.9332845,-0.007125217444380017
225,1643843492.9360456,-0.007625232703634755
226,1643843492.9388082,-0.007875240333262123
227,1643843492.9415696,-0.007875240333262123
228,1643843492.944409,-0.007625232703634755
229,1643843492.9471908,-0.007375225074007386
230,1643843492.9500265,-0.007125217444380017
231,1643843492.9528582,-0.006500198370311594
232,1643843492.955688,-0.00637519455549791
233,1643843492.9585214,-0.00612518692587054
234,1643843492.9613574,-0.005750175481429487
235,1643843492.964188,-0.0056251716666158025
236,1643843492.967021,-0.005500167851802118
237,1643843492.9698498,-0.005500167851802118
238,1643843492.972679,-0.0056251716666158025
239,1643843492.9755082,-0.005750175481429487
240,1643843492.97834,-0.00612518692587054
241,1643843492.98117,-0.006250190740684225
242,1643843492.983999,-0.006625202185125278
243,1643843492.986832,-0.006750205999938963
244,1643843492.9896612,-0.006750205999938963
245,1643843492.9924896,-0.006750205999938963
246,1643843492.9953182,-0.006500198370311594
247,1643843492.9981518,-0.006250190740684225
248,1643843493.000981,-0.005875179296243172
249,1643843493.0038104,-0.005875179296243172
250,1643843493.0066407,-0.005750175481429487
251,1643843493.009472,-0.0056251716666158025
252,1643843493.012301,-0.005750175481429487
253,1643843493.0151315,-0.005875179296243172
254,1643843493.0179632,-0.00637519455549791
255,1643843493.0207934,-0.006750205999938963
256,1643843493.0236228,-0.007125217444380017
257,1643843493.0264556,-0.007625232703634755
258,1643843493.0292838,-0.008000244148075809
259,1643843493.0321124,-0.008375255592516862
260,1643843493.0349405,-0.008500259407330547
261,1643843493.0377762,-0.008500259407330547
262,1643843493.04065,-0.008250251777703178
263,1643843493.0434809,-0.00750022888882107
264,1643843493.0464206,-0.0072502212591937015
265,1643843493.0492525,-0.006750205999938963
266,1643843493.052057,-0.006250190740684225
267,1643843493.0548582,-0.00612518692587054
268,1643843493.0576656,-0.00612518692587054
269,1643843493.0604668,-0.00612518692587054
270,1643843493.063269,-0.00637519455549791
271,1643843493.066071,-0.006625202185125278
272,1643843493.0689034,-0.007125217444380017
273,1643843493.071705,-0.00750022888882107
274,1643843493.0745068,-0.007625232703634755
275,1643843493.077311,-0.007875240333262123
276,1643843493.0801108,-0.007875240333262123
277,1643843493.082911,-0.007750236518448439
278,1643843493.0857105,-0.007375225074007386
279,1643843493.0885139,-0.007000213629566332
280,1643843493.0913138,-0.006625202185125278
281,1643843493.0941148,-0.0060001831110568565
282,1643843493.0969188,-0.0056251716666158025
283,1643843493.0997195,-0.0056251716666158025
284,1643843493.102541,-0.0056251716666158025
285,1643843493.1053426,-0.005750175481429487
286,1643843493.108147,-0.0060001831110568565
287,1643843493.110947,-0.006500198370311594
288,1643843493.113747,-0.006750205999938963
289,1643843493.1165504,-0.007125217444380017
290,1643843493.1193504,-0.00750022888882107
291,1643843493.1221502,-0.00750022888882107
292,1643843493.1249497,-0.00750022888882107
293,1643843493.1277525,-0.007375225074007386
294,1643843493.1305523,-0.007125217444380017
295,1643843493.1333513,-0.007000213629566332
296,1643843493.1361513,-0.006625202185125278
297,1643843493.1389544,-0.00637519455549791
298,1643843493.1417537,-0.00612518692587054
299,1643843493.144554,-0.00612518692587054
300,1643843493.1473825,-0.00612518692587054
301,1643843493.1501858,-0.006250190740684225
302,1643843493.1529863,-0.006750205999938963
303,1643843493.1557863,-0.007000213629566332
304,1643843493.1585917,-0.007125217444380017
305,1643843493.1613913,-0.00750022888882107
306,1643843493.1641908,-0.007625232703634755
307,1643843493.166995,-0.007750236518448439
308,1643843493.1697946,-0.007750236518448439
309,1643843493.172595,-0.007625232703634755
310,1643843493.1753964,-0.00750022888882107
311,1643843493.1782012,-0.00750022888882107
312,1643843493.181008,-0.0072502212591937015
313,1643843493.1838074,-0.0072502212591937015
314,1643843493.1866121,-0.007375225074007386
315,1643843493.189412,-0.007375225074007386
316,1643843493.1922126,-0.007375225074007386
317,1643843493.1950145,-0.007375225074007386
318,1643843493.1978192,-0.007375225074007386
319,1643843493.2006187,-0.0072502212591937015
320,1643843493.2034197,-0.007375225074007386
321,1643843493.2062185,-0.007375225074007386
322,1643843493.209107,-0.0072502212591937015
323,1643843493.2119102,-0.007000213629566332
324,1643843493.2147117,-0.006750205999938963
325,1643843493.2175167,-0.006625202185125278
326,1643843493.2203174,-0.006500198370311594
327,1643843493.2231178,-0.00637519455549791
328,1643843493.2259183,-0.006250190740684225
329,1643843493.2287219,-0.00637519455549791
330,1643843493.2315226,-0.00637519455549791
331,1643843493.2343235,-0.006500198370311594
332,1643843493.2371283,-0.0068752098147526475
333,1643843493.2399306,-0.0068752098147526475
334,1643843493.2427323,-0.007000213629566332
335,1643843493.2455335,-0.007000213629566332
336,1643843493.248359,-0.0068752098147526475
337,1643843493.2511625,-0.0068752098147526475
338,1643843493.253964,-0.007000213629566332
339,1643843493.256769,-0.007000213629566332
340,1643843493.2595692,-0.0068752098147526475
341,1643843493.26237,-0.0068752098147526475
342,1643843493.2651713,-0.0068752098147526475
343,1643843493.2679756,-0.007000213629566332
344,1643843493.2707758,-0.0072502212591937015
345,1643843493.2735767,-0.00750022888882107
346,1643843493.276381,-0.007625232703634755
347,1643843493.2791815,-0.008000244148075809
348,1643843493.2819817,-0.008125247962889492
349,1643843493.2847824,-0.008125247962889492
350,1643843493.2875862,-0.008125247962889492
351,1643843493.2903867,-0.008000244148075809
352,1643843493.2931862,-0.007750236518448439
353,1643843493.2959857,-0.007375225074007386
354,1643843493.2987893,-0.0072502212591937015
355,1643843493.301592,-0.007125217444380017
356,1643843493.304392,-0.0068752098147526475
357,1643843493.3071973,-0.006750205999938963
358,1643843493.3099985,-0.006750205999938963
359,1643843493.312799,-0.006750205999938963
360,1643843493.3156004,-0.006750205999938963
361,1643843493.318403,-0.0068752098147526475
362,1643843493.3212047,-0.007125217444380017
363,1643843493.3240073,-0.007125217444380017
364,1643843493.3268106,-0.0072502212591937015
365,1643843493.3296118,-0.0072502212591937015
366,1643843493.3324127,-0.007125217444380017
367,1643843493.3352134,-0.007000213629566332
368,1643843493.338017,-0.0068752098147526475
369,1643843493.340818,-0.0068752098147526475
370,1643843493.3436177,-0.006625202185125278
371,1643843493.346421,-0.00637519455549791
372,1643843493.3492465,-0.00637519455549791
373,1643843493.352049,-0.006500198370311594
374,1643843493.3548498,-0.006750205999938963
375,1643843493.3576531,-0.006750205999938963
376,1643843493.3604536,-0.0068752098147526475
377,1643843493.3632543,-0.007125217444380017
378,1643843493.3660543,-0.0072502212591937015
379,1643843493.368855,-0.0072502212591937015
380,1643843493.3716571,-0.007375225074007386
381,1643843493.3744571,-0.007375225074007386
382,1643843493.3772626,-0.007375225074007386
383,1643843493.3800626,-0.0072502212591937015
384,1643843493.3828633,-0.007125217444380017
385,1643843493.3856854,-0.007125217444380017
386,1643843493.388491,-0.007000213629566332
387,1643843493.3912926,-0.007000213629566332
388,1643843493.3940928,-0.0068752098147526475
389,1643843493.3969176,-0.0068752098147526475
390,1643843493.3997371,-0.0068752098147526475
391,1643843493.4025378,-0.007000213629566332
392,1643843493.405337,-0.0072502212591937015
393,1643843493.408138,-0.0072502212591937015
394,1643843493.410939,-0.007375225074007386
395,1643843493.4137375,-0.007125217444380017
396,1643843493.4165401,-0.007125217444380017
397,1643843493.4193397,-0.007125217444380017
398,1643843493.4221396,-0.007125217444380017
399,1643843493.424941,-0.007125217444380017
400,1643843493.427745,-0.007125217444380017
401,1643843493.4305475,-0.007125217444380017
402,1643843493.4333477,-0.007000213629566332
403,1643843493.4361475,-0.007000213629566332
404,1643843493.4389513,-0.007125217444380017
405,1643843493.4417496,-0.007125217444380017
406,1643843493.444553,-0.007125217444380017
407,1643843493.4473572,-0.0072502212591937015
408,1643843493.4501803,-0.0072502212591937015
409,1643843493.452985,-0.007375225074007386
410,1643843493.4557853,-0.0072502212591937015
411,1643843493.4585886,-0.007125217444380017
412,1643843493.4613905,-0.007125217444380017
413,1643843493.4641914,-0.0068752098147526475
414,1643843493.4669957,-0.006750205999938963
415,1643843493.4697983,-0.006750205999938963
416,1643843493.4725986,-0.006750205999938963
417,1643843493.4753978,-0.006750205999938963
418,1643843493.4782026,-0.0068752098147526475
419,1643843493.4810033,-0.0068752098147526475
420,1643843493.4838026,-0.007000213629566332
421,1643843493.486608,-0.007125217444380017
422,1643843493.489409,-0.0072502212591937015
423,1643843493.492209,-0.0072502212591937015
424,1643843493.4950094,-0.007375225074007386
425,1643843493.4978135,-0.007375225074007386
426,1643843493.5006146,-0.007375225074007386
427,1643843493.5034168,-0.007375225074007386
428,1643843493.506218,-0.007375225074007386
429,1643843493.50905,-0.007375225074007386
430,1643843493.5118513,-0.007375225074007386
431,1643843493.514653,-0.0072502212591937015
432,1643843493.5174565,-0.007375225074007386
433,1643843493.520257,-0.00750022888882107
434,1643843493.5230575,-0.007625232703634755
435,1643843493.5258574,-0.007875240333262123
436,1643843493.5286622,-0.007750236518448439
437,1643843493.5314639,-0.007750236518448439
438,1643843493.5342638,-0.007875240333262123
439,1643843493.537067,-0.007875240333262123
440,1643843493.5398655,-0.008000244148075809
441,1643843493.5426655,-0.007875240333262123
442,1643843493.5454664,-0.007750236518448439
443,1643843493.5482697,-0.007750236518448439
444,1643843493.5510943,-0.007875240333262123
445,1643843493.5538974,-0.007750236518448439
446,1643843493.556702,-0.007750236518448439
447,1643843493.5595028,-0.007625232703634755
448,1643843493.5623028,-0.00750022888882107
