,Time (s),Signal (V)
0,1644263368.8609278,0.001250038148136845
1,1644263368.8685925,0.0013750419629505295
2,1644263368.871326,0.001250038148136845
3,1644263368.874039,0.0013750419629505295
4,1644263368.876751,0.0013750419629505295
5,1644263368.8794622,0.001250038148136845
6,1644263368.8821723,0.001250038148136845
7,1644263368.8848805,0.0013750419629505295
8,1644263368.8876016,0.0013750419629505295
9,1644263368.8903062,0.0013750419629505295
10,1644263368.89301,0.0015000457777642141
11,1644263368.8957145,0.0016250495925778986
12,1644263368.898419,0.0015000457777642141
13,1644263368.9011226,0.0015000457777642141
14,1644263368.9038258,0.001250038148136845
15,1644263368.9065292,0.001250038148136845
16,1644263368.9092321,0.0013750419629505295
17,1644263368.911936,0.0013750419629505295
18,1644263368.9146397,0.0015000457777642141
19,1644263368.9173424,0.0013750419629505295
20,1644263368.9200451,0.0011250343333231605
21,1644263368.9227483,0.001250038148136845
22,1644263368.9254553,0.001250038148136845
23,1644263368.9281604,0.001250038148136845
24,1644263368.9308658,0.0011250343333231605
25,1644263368.9335723,0.0011250343333231605
26,1644263368.9362786,0.001250038148136845
27,1644263368.9389832,0.001250038148136845
28,1644263368.9416883,0.0013750419629505295
29,1644263368.9443936,0.0013750419629505295
30,1644263368.9470992,0.0015000457777642141
31,1644263368.949804,0.0013750419629505295
32,1644263368.952511,0.001250038148136845
33,1644263368.955216,0.0013750419629505295
34,1644263368.957945,0.0013750419629505295
35,1644263368.9606519,0.001250038148136845
36,1644263368.963359,0.0013750419629505295
37,1644263368.9660642,0.0015000457777642141
38,1644263368.9687693,0.0013750419629505295
39,1644263368.9714751,0.001250038148136845
40,1644263368.9741857,0.0013750419629505295
41,1644263368.9768922,0.0013750419629505295
42,1644263368.979597,0.001250038148136845
43,1644263368.9823039,0.001250038148136845
44,1644263368.9850087,0.0013750419629505295
45,1644263368.987715,0.0011250343333231605
46,1644263368.990418,0.0011250343333231605
47,1644263368.993122,0.001250038148136845
48,1644263368.9958265,0.0013750419629505295
49,1644263368.9985282,0.0013750419629505295
50,1644263369.0012302,0.0015000457777642141
51,1644263369.0039325,0.0015000457777642141
52,1644263369.0066352,0.0015000457777642141
53,1644263369.009337,0.0016250495925778986
54,1644263369.0120382,0.0016250495925778986
55,1644263369.0147405,0.0016250495925778986
56,1644263369.017442,0.0016250495925778986
57,1644263369.0201435,0.0015000457777642141
58,1644263369.022847,0.0015000457777642141
59,1644263369.0255537,0.0016250495925778986
60,1644263369.02826,0.0015000457777642141
61,1644263369.0309658,0.0015000457777642141
62,1644263369.033672,0.0013750419629505295
63,1644263369.0363767,0.0013750419629505295
64,1644263369.0390813,0.001250038148136845
65,1644263369.0417857,0.001250038148136845
66,1644263369.0444922,0.0011250343333231605
67,1644263369.047198,0.001250038148136845
68,1644263369.0499027,0.0013750419629505295
69,1644263369.0526092,0.0013750419629505295
70,1644263369.0553148,0.0013750419629505295
71,1644263369.0580194,0.0016250495925778986
72,1644263369.060724,0.0015000457777642141
73,1644263369.0634305,0.0013750419629505295
74,1644263369.0661361,0.0016250495925778986
75,1644263369.0688415,0.0013750419629505295
76,1644263369.0715458,0.001250038148136845
77,1644263369.0742512,0.001250038148136845
78,1644263369.0769558,0.0013750419629505295
79,1644263369.0796611,0.0013750419629505295
80,1644263369.0823796,0.0015000457777642141
81,1644263369.0850847,0.0016250495925778986
82,1644263369.0877893,0.0016250495925778986
83,1644263369.0904942,0.0015000457777642141
84,1644263369.093201,0.0013750419629505295
85,1644263369.0959032,0.0013750419629505295
86,1644263369.0986063,0.0013750419629505295
87,1644263369.101317,0.001250038148136845
88,1644263369.1040597,0.0011250343333231605
89,1644263369.1068318,0.0013750419629505295
90,1644263369.1096084,0.001250038148136845
91,1644263369.112355,0.0013750419629505295
92,1644263369.1151004,0.0016250495925778986
93,1644263369.1178436,0.001750053407391583
94,1644263369.1205866,0.0015000457777642141
95,1644263369.1233287,0.0016250495925778986
96,1644263369.1260717,0.0016250495925778986
97,1644263369.1288126,0.0016250495925778986
98,1644263369.1315532,0.0015000457777642141
99,1644263369.1342983,0.0016250495925778986
100,1644263369.137044,0.0015000457777642141
101,1644263369.1398108,0.001750053407391583
102,1644263369.1425698,0.001750053407391583
103,1644263369.1453166,0.0018750572222052675
104,1644263369.1480615,0.0018750572222052675
105,1644263369.1508062,0.001750053407391583
106,1644263369.153551,0.0016250495925778986
107,1644263369.1563094,0.001750053407391583
108,1644263369.1590683,0.001750053407391583
109,1644263369.161812,0.0016250495925778986
110,1644263369.1645796,0.0016250495925778986
111,1644263369.1673257,0.001750053407391583
112,1644263369.1700683,0.0016250495925778986
113,1644263369.1728091,0.0016250495925778986
114,1644263369.1755524,0.001750053407391583
115,1644263369.1782956,0.001750053407391583
116,1644263369.1810644,0.001750053407391583
117,1644263369.1838071,0.0018750572222052675
118,1644263369.186549,0.0018750572222052675
119,1644263369.1892893,0.0018750572222052675
120,1644263369.1920297,0.001750053407391583
121,1644263369.1947718,0.0018750572222052675
122,1644263369.1975121,0.0018750572222052675
123,1644263369.200253,0.0016250495925778986
124,1644263369.2029965,0.0016250495925778986
125,1644263369.2057562,0.0016250495925778986
126,1644263369.2085526,0.0016250495925778986
127,1644263369.2113507,0.0015000457777642141
128,1644263369.2141433,0.0016250495925778986
129,1644263369.2169373,0.001750053407391583
130,1644263369.2197301,0.0016250495925778986
131,1644263369.222521,0.001750053407391583
132,1644263369.2253134,0.002000061037018952
133,1644263369.228104,0.002125064851832637
134,1644263369.2308931,0.002000061037018952
135,1644263369.2337098,0.002125064851832637
136,1644263369.2365012,0.002125064851832637
137,1644263369.239289,0.002125064851832637
138,1644263369.2420774,0.002125064851832637
139,1644263369.244868,0.002250068666646321
140,1644263369.2476592,0.002125064851832637
141,1644263369.2504501,0.002000061037018952
142,1644263369.25324,0.002000061037018952
143,1644263369.2560308,0.002250068666646321
144,1644263369.2588203,0.0023750724814600053
145,1644263369.261609,0.002125064851832637
146,1644263369.264401,0.002250068666646321
147,1644263369.2671988,0.002250068666646321
148,1644263369.26999,0.002000061037018952
149,1644263369.2727842,0.0018750572222052675
150,1644263369.2755766,0.002125064851832637
151,1644263369.2783656,0.002000061037018952
152,1644263369.2811553,0.0018750572222052675
153,1644263369.2839494,0.002250068666646321
154,1644263369.2867482,0.002250068666646321
155,1644263369.2895455,0.0023750724814600053
156,1644263369.2923453,0.00250007629627369
157,1644263369.2951415,0.002750083925901059
158,1644263369.297937,0.002750083925901059
159,1644263369.3007329,0.00250007629627369
160,1644263369.3035588,0.0023750724814600053
161,1644263369.3063536,0.00250007629627369
162,1644263369.309145,0.00250007629627369
163,1644263369.311943,0.0026250801110873747
164,1644263369.3147438,0.00250007629627369
165,1644263369.31754,0.0026250801110873747
166,1644263369.3203368,0.0023750724814600053
167,1644263369.323136,0.0023750724814600053
168,1644263369.325931,0.002125064851832637
169,1644263369.3287263,0.002000061037018952
170,1644263369.3315217,0.0018750572222052675
171,1644263369.3343203,0.0016250495925778986
172,1644263369.3371172,0.0013750419629505295
173,1644263369.3399124,0.0013750419629505295
174,1644263369.3427157,0.0015000457777642141
175,1644263369.345513,0.0015000457777642141
176,1644263369.3483088,0.0015000457777642141
177,1644263369.351104,0.001250038148136845
178,1644263369.3539038,0.0013750419629505295
179,1644263369.3567,0.0016250495925778986
180,1644263369.3594944,0.0016250495925778986
181,1644263369.3623178,0.001750053407391583
182,1644263369.3651145,0.0018750572222052675
183,1644263369.3679092,0.0018750572222052675
184,1644263369.3707042,0.0018750572222052675
185,1644263369.3735032,0.002000061037018952
186,1644263369.3762987,0.002000061037018952
187,1644263369.3790936,0.0016250495925778986
188,1644263369.3818915,0.0016250495925778986
189,1644263369.384688,0.0016250495925778986
190,1644263369.3874855,0.0015000457777642141
191,1644263369.3902783,0.0015000457777642141
192,1644263369.3930688,0.0015000457777642141
193,1644263369.39586,0.0016250495925778986
194,1644263369.3986478,0.001750053407391583
195,1644263369.401437,0.001750053407391583
196,1644263369.4042537,0.0018750572222052675
197,1644263369.4070523,0.0018750572222052675
198,1644263369.4098465,0.0018750572222052675
199,1644263369.4126372,0.0018750572222052675
200,1644263369.41543,0.0018750572222052675
201,1644263369.4182215,0.002000061037018952
202,1644263369.4210138,0.0016250495925778986
203,1644263369.423807,0.001750053407391583
204,1644263369.4266045,0.001750053407391583
205,1644263369.4293993,0.0016250495925778986
206,1644263369.432198,0.001750053407391583
207,1644263369.4349935,0.001750053407391583
208,1644263369.4377882,0.0015000457777642141
209,1644263369.4405835,0.0013750419629505295
210,1644263369.4433813,0.0015000457777642141
211,1644263369.4461775,0.0016250495925778986
212,1644263369.4489727,0.0015000457777642141
213,1644263369.451767,0.0013750419629505295
214,1644263369.454566,0.0016250495925778986
215,1644263369.4573603,0.0018750572222052675
216,1644263369.4601507,0.001750053407391583
217,1644263369.4629424,0.001750053407391583
218,1644263369.465737,0.0018750572222052675
219,1644263369.46853,0.0018750572222052675
220,1644263369.471318,0.001750053407391583
221,1644263369.474108,0.0018750572222052675
222,1644263369.4768996,0.0018750572222052675
223,1644263369.4796882,0.0016250495925778986
224,1644263369.4824774,0.001750053407391583
225,1644263369.485268,0.0018750572222052675
226,1644263369.4880576,0.001750053407391583
227,1644263369.4908466,0.001750053407391583
228,1644263369.493636,0.001750053407391583
229,1644263369.4964266,0.001750053407391583
230,1644263369.499216,0.0016250495925778986
231,1644263369.5020044,0.0015000457777642141
232,1644263369.5048194,0.0016250495925778986
233,1644263369.5076132,0.001750053407391583
234,1644263369.5104094,0.001750053407391583
235,1644263369.5132036,0.001750053407391583
236,1644263369.5160036,0.002000061037018952
237,1644263369.5187998,0.002000061037018952
238,1644263369.5215945,0.0018750572222052675
239,1644263369.5243945,0.0023750724814600053
240,1644263369.52719,0.0023750724814600053
241,1644263369.5299852,0.002250068666646321
242,1644263369.5327854,0.002250068666646321
243,1644263369.5355816,0.002125064851832637
244,1644263369.5383775,0.002000061037018952
245,1644263369.5411742,0.002000061037018952
246,1644263369.5439725,0.002125064851832637
247,1644263369.5467699,0.002000061037018952
248,1644263369.549566,0.001750053407391583
249,1644263369.552365,0.0016250495925778986
250,1644263369.555161,0.001750053407391583
251,1644263369.5579572,0.0018750572222052675
252,1644263369.5607522,0.001750053407391583
253,1644263369.5635505,0.001750053407391583
254,1644263369.5663471,0.0018750572222052675
255,1644263369.569142,0.001750053407391583
256,1644263369.57194,0.001750053407391583
257,1644263369.5747373,0.002000061037018952
258,1644263369.577532,0.002250068666646321
259,1644263369.5803494,0.002000061037018952
260,1644263369.5831404,0.002125064851832637
261,1644263369.5859346,0.002125064851832637
262,1644263369.5887516,0.002000061037018952
263,1644263369.591541,0.002000061037018952
264,1644263369.5943303,0.002250068666646321
265,1644263369.5971205,0.002250068666646321
266,1644263369.599909,0.002250068666646321
267,1644263369.6026986,0.002000061037018952
268,1644263369.605514,0.002000061037018952
269,1644263369.608305,0.0018750572222052675
270,1644263369.6110966,0.001750053407391583
271,1644263369.6138906,0.001750053407391583
272,1644263369.6166887,0.0018750572222052675
273,1644263369.6194832,0.0016250495925778986
274,1644263369.6222816,0.0016250495925778986
275,1644263369.6251116,0.002000061037018952
276,1644263369.6279025,0.002000061037018952
277,1644263369.6306918,0.0018750572222052675
278,1644263369.6334813,0.002000061037018952
279,1644263369.6362722,0.002000061037018952
280,1644263369.639061,0.002000061037018952
281,1644263369.6418736,0.002000061037018952
282,1644263369.6446855,0.002000061037018952
283,1644263369.647476,0.002125064851832637
284,1644263369.6502657,0.002000061037018952
285,1644263369.6530545,0.002000061037018952
286,1644263369.6558459,0.002000061037018952
287,1644263369.6586347,0.002000061037018952
288,1644263369.661426,0.001750053407391583
289,1644263369.664218,0.002000061037018952
290,1644263369.6670096,0.0018750572222052675
291,1644263369.6697981,0.001750053407391583
292,1644263369.6725876,0.001750053407391583
293,1644263369.6753805,0.0018750572222052675
294,1644263369.6781683,0.0018750572222052675
295,1644263369.680957,0.001750053407391583
296,1644263369.6837482,0.001750053407391583
297,1644263369.6865385,0.0018750572222052675
298,1644263369.6893284,0.0018750572222052675
299,1644263369.692121,0.0018750572222052675
300,1644263369.6949193,0.0018750572222052675
301,1644263369.6977184,0.002125064851832637
302,1644263369.7005134,0.002000061037018952
303,1644263369.7033021,0.0018750572222052675
304,1644263369.7061183,0.0018750572222052675
305,1644263369.7089117,0.001750053407391583
306,1644263369.7117019,0.0018750572222052675
307,1644263369.714566,0.002125064851832637
308,1644263369.7173605,0.002125064851832637
309,1644263369.7201507,0.0018750572222052675
310,1644263369.7229445,0.0018750572222052675
311,1644263369.7257357,0.002000061037018952
312,1644263369.7285256,0.002000061037018952
313,1644263369.7313168,0.001750053407391583
314,1644263369.7341118,0.002000061037018952
315,1644263369.7369034,0.0018750572222052675
316,1644263369.739692,0.0018750572222052675
317,1644263369.7424817,0.0018750572222052675
318,1644263369.745273,0.002000061037018952
319,1644263369.7480617,0.002125064851832637
320,1644263369.750853,0.002000061037018952
321,1644263369.7536423,0.002000061037018952
322,1644263369.7564332,0.002250068666646321
323,1644263369.7592232,0.002250068666646321
324,1644263369.7620113,0.002125064851832637
325,1644263369.764803,0.002250068666646321
326,1644263369.7675936,0.002125064851832637
327,1644263369.7703855,0.0018750572222052675
328,1644263369.7731774,0.0018750572222052675
329,1644263369.7759707,0.002125064851832637
330,1644263369.778759,0.002000061037018952
331,1644263369.7815485,0.0018750572222052675
332,1644263369.784339,0.002000061037018952
333,1644263369.7871292,0.001750053407391583
334,1644263369.7899172,0.001750053407391583
335,1644263369.7927074,0.001750053407391583
336,1644263369.7954977,0.0018750572222052675
337,1644263369.7982855,0.0018750572222052675
338,1644263369.8010736,0.002000061037018952
339,1644263369.8038664,0.0018750572222052675
340,1644263369.8066905,0.002000061037018952
341,1644263369.8094926,0.002125064851832637
342,1644263369.8122916,0.002125064851832637
343,1644263369.815082,0.002250068666646321
344,1644263369.8178718,0.002125064851832637
345,1644263369.820661,0.0018750572222052675
346,1644263369.8234527,0.002000061037018952
347,1644263369.8262503,0.002250068666646321
348,1644263369.8290472,0.002125064851832637
349,1644263369.8318691,0.002250068666646321
350,1644263369.8346686,0.002250068666646321
351,1644263369.8374658,0.002125064851832637
352,1644263369.8402622,0.002125064851832637
353,1644263369.843064,0.002000061037018952
354,1644263369.8458617,0.002000061037018952
355,1644263369.8486602,0.002000061037018952
356,1644263369.8514574,0.0018750572222052675
357,1644263369.8542578,0.002000061037018952
358,1644263369.8570542,0.002250068666646321
359,1644263369.8598523,0.0023750724814600053
360,1644263369.8626518,0.0023750724814600053
361,1644263369.8654485,0.00250007629627369
362,1644263369.8682458,0.00250007629627369
363,1644263369.871042,0.002250068666646321
364,1644263369.8738406,0.002250068666646321
365,1644263369.876639,0.002250068666646321
366,1644263369.8794343,0.002125064851832637
367,1644263369.882234,0.002125064851832637
368,1644263369.8850327,0.002250068666646321
369,1644263369.8878295,0.0023750724814600053
370,1644263369.8906267,0.0023750724814600053
371,1644263369.8934278,0.0023750724814600053
372,1644263369.8962245,0.0023750724814600053
373,1644263369.8990192,0.0023750724814600053
374,1644263369.9018168,0.002250068666646321
375,1644263369.904641,0.002000061037018952
376,1644263369.907461,0.002125064851832637
377,1644263369.9102604,0.002000061037018952
378,1644263369.9130604,0.002000061037018952
379,1644263369.915856,0.002250068666646321
380,1644263369.9186528,0.002250068666646321
381,1644263369.9214492,0.002125064851832637
382,1644263369.9242427,0.002250068666646321
383,1644263369.9270585,0.002250068666646321
384,1644263369.92985,0.002250068666646321
385,1644263369.9326396,0.002125064851832637
386,1644263369.9354315,0.002250068666646321
387,1644263369.9382207,0.002000061037018952
388,1644263369.9410088,0.002125064851832637
389,1644263369.9438207,0.002250068666646321
390,1644263369.9466312,0.002250068666646321
391,1644263369.9494216,0.002125064851832637
392,1644263369.9522138,0.002000061037018952
393,1644263369.9550157,0.002000061037018952
394,1644263369.9578164,0.0018750572222052675
395,1644263369.9606142,0.0018750572222052675
396,1644263369.9634144,0.0018750572222052675
397,1644263369.9662104,0.002250068666646321
398,1644263369.969007,0.0023750724814600053
399,1644263369.9718025,0.0023750724814600053
400,1644263369.9746242,0.002750083925901059
401,1644263369.9774213,0.0026250801110873747
402,1644263369.9802177,0.00250007629627369
403,1644263369.9830139,0.0026250801110873747
404,1644263369.9858115,0.0026250801110873747
405,1644263369.9886072,0.00250007629627369
406,1644263369.9914057,0.00250007629627369
407,1644263369.9942062,0.00250007629627369
408,1644263369.997002,0.0026250801110873747
409,1644263369.9998002,0.002750083925901059
410,1644263370.0025945,0.002750083925901059
411,1644263370.0053885,0.0028750877407147436
412,1644263370.008204,0.0028750877407147436
413,1644263370.0109951,0.002750083925901059
414,1644263370.0137858,0.0028750877407147436
415,1644263370.016577,0.0031250953703421125
416,1644263370.0193658,0.0028750877407147436
417,1644263370.0221548,0.002750083925901059
418,1644263370.0249462,0.003250099185155797
419,1644263370.0277345,0.0033751029999694814
420,1644263370.0305226,0.0033751029999694814
421,1644263370.0333118,0.003750114444410535
422,1644263370.0361013,0.003750114444410535
423,1644263370.0388901,0.003750114444410535
424,1644263370.0416787,0.0038751182592242197
425,1644263370.044493,0.004000122074037904
426,1644263370.0472822,0.004000122074037904
427,1644263370.05007,0.003750114444410535
428,1644263370.052866,0.003750114444410535
429,1644263370.0556622,0.0038751182592242197
430,1644263370.0584528,0.0038751182592242197
431,1644263370.0612426,0.0038751182592242197
432,1644263370.0640311,0.0038751182592242197
433,1644263370.066823,0.004000122074037904
434,1644263370.0696135,0.0038751182592242197
435,1644263370.0724025,0.004000122074037904
436,1644263370.0751922,0.0043751335184789575
437,1644263370.0779822,0.004250129703665274
438,1644263370.0807717,0.004250129703665274
439,1644263370.0835617,0.004250129703665274
440,1644263370.0863557,0.004750144962920011
441,1644263370.0891454,0.004500137333292642
442,1644263370.091938,0.004625141148106326
443,1644263370.094738,0.004875148777733695
444,1644263370.0975335,0.00500015259254738
445,1644263370.1003292,0.00500015259254738
446,1644263370.1031308,0.00500015259254738
447,1644263370.1059282,0.00500015259254738
448,1644263370.108749,0.005125156407361065
449,1644263370.1116114,0.005125156407361065
450,1644263370.1144042,0.005125156407361065
451,1644263370.1171956,0.005250160222174749
452,1644263370.1199846,0.00500015259254738
453,1644263370.1227736,0.005125156407361065
