,Time (s),Signal (V)
0,1646606791.5069249,-0.9334034852137822
1,1646606791.5121996,-0.9330284737693412
2,1646606791.513843,-0.9330284737693412
3,1646606791.5154557,-0.9334034852137822
4,1646606791.517062,-0.9335284890285959
5,1646606791.5186732,-0.9334034852137822
6,1646606791.5202804,-0.9335284890285959
7,1646606791.5218835,-0.9337784966582232
8,1646606791.5234866,-0.9335284890285959
9,1646606791.52509,-0.9334034852137822
10,1646606791.5266924,-0.9335284890285959
11,1646606791.5282962,-0.9336534928434096
12,1646606791.5298986,-0.9335284890285959
13,1646606791.5314991,-0.9330284737693412
14,1646606791.5330973,-0.9329034699545274
15,1646606791.534697,-0.9329034699545274
16,1646606791.5362973,-0.9330284737693412
17,1646606791.5379045,-0.9331534775841548
18,1646606791.5395195,-0.9331534775841548
19,1646606791.5411289,-0.9330284737693412
20,1646606791.5427375,-0.9330284737693412
21,1646606791.5443456,-0.9331534775841548
22,1646606791.545954,-0.9334034852137822
23,1646606791.5475655,-0.9335284890285959
24,1646606791.549174,-0.9339035004730369
25,1646606791.5507817,-0.9336534928434096
26,1646606791.5523918,-0.9334034852137822
27,1646606791.5539994,-0.9334034852137822
28,1646606791.5556085,-0.9335284890285959
29,1646606791.557221,-0.9336534928434096
30,1646606791.5588293,-0.9336534928434096
31,1646606791.5604372,-0.9336534928434096
32,1646606791.5620446,-0.9339035004730369
33,1646606791.5636506,-0.9339035004730369
34,1646606791.5652592,-0.9340285042878507
35,1646606791.5668654,-0.9340285042878507
36,1646606791.5685043,-0.9340285042878507
37,1646606791.5701125,-0.9337784966582232
38,1646606791.5717206,-0.9332784813989685
39,1646606791.573328,-0.9331534775841548
40,1646606791.5749338,-0.9332784813989685
41,1646606791.5765529,-0.9334034852137822
42,1646606791.5781715,-0.9334034852137822
43,1646606791.5797782,-0.9334034852137822
44,1646606791.5813844,-0.9335284890285959
45,1646606791.5829902,-0.9336534928434096
46,1646606791.5845966,-0.9336534928434096
47,1646606791.586205,-0.9335284890285959
48,1646606791.5878253,-0.9334034852137822
49,1646606791.5894387,-0.9331534775841548
50,1646606791.5910451,-0.9325284585100864
51,1646606791.5926492,-0.9321534470656453
52,1646606791.594256,-0.932278450880459
53,1646606791.5958626,-0.9324034546952727
54,1646606791.5974803,-0.9326534623249001
55,1646606791.5990913,-0.9327784661397137
56,1646606791.6006992,-0.9329034699545274
57,1646606791.6023066,-0.9331534775841548
58,1646606791.603914,-0.9335284890285959
59,1646606791.6055212,-0.9336534928434096
60,1646606791.6071272,-0.9337784966582232
61,1646606791.608775,-0.9339035004730369
62,1646606791.610383,-0.9336534928434096
63,1646606791.611989,-0.9331534775841548
64,1646606791.6135952,-0.9330284737693412
65,1646606791.615201,-0.9332784813989685
66,1646606791.6168067,-0.9332784813989685
67,1646606791.6184115,-0.9332784813989685
68,1646606791.6200197,-0.9335284890285959
69,1646606791.6216273,-0.9332784813989685
70,1646606791.6232328,-0.9332784813989685
71,1646606791.6248386,-0.9332784813989685
72,1646606791.6264727,-0.9331534775841548
73,1646606791.628088,-0.9330284737693412
74,1646606791.629696,-0.9332784813989685
75,1646606791.6313028,-0.9329034699545274
76,1646606791.6329095,-0.9324034546952727
77,1646606791.6345165,-0.9326534623249001
78,1646606791.6361213,-0.9327784661397137
79,1646606791.6377273,-0.9327784661397137
80,1646606791.6393328,-0.9329034699545274
81,1646606791.640939,-0.9327784661397137
82,1646606791.6425452,-0.9329034699545274
83,1646606791.6441514,-0.9329034699545274
84,1646606791.645758,-0.9330284737693412
85,1646606791.6473663,-0.9330284737693412
86,1646606791.648974,-0.9329034699545274
87,1646606791.650579,-0.9327784661397137
88,1646606791.6522121,-0.9324034546952727
89,1646606791.6538563,-0.932278450880459
90,1646606791.6554704,-0.9324034546952727
91,1646606791.6570785,-0.9324034546952727
92,1646606791.6586895,-0.9324034546952727
93,1646606791.6602967,-0.9324034546952727
94,1646606791.6619205,-0.9325284585100864
95,1646606791.6635633,-0.9324034546952727
96,1646606791.6652067,-0.9325284585100864
97,1646606791.6668205,-0.9324034546952727
98,1646606791.6684725,-0.9327784661397137
99,1646606791.670118,-0.9324034546952727
100,1646606791.6717362,-0.9320284432508317
101,1646606791.6733446,-0.9317784356212042
102,1646606791.674949,-0.9317784356212042
103,1646606791.6765566,-0.9319034394360179
104,1646606791.6781633,-0.9320284432508317
105,1646606791.6797705,-0.9321534470656453
106,1646606791.6813781,-0.9321534470656453
107,1646606791.682986,-0.9321534470656453
108,1646606791.684593,-0.932278450880459
109,1646606791.686198,-0.9324034546952727
110,1646606791.6878057,-0.9325284585100864
111,1646606791.6894138,-0.9325284585100864
112,1646606791.6910198,-0.9320284432508317
113,1646606791.692625,-0.9317784356212042
114,1646606791.69423,-0.9319034394360179
115,1646606791.6958368,-0.9320284432508317
116,1646606791.6974428,-0.9321534470656453
117,1646606791.6990476,-0.9320284432508317
118,1646606791.700654,-0.9321534470656453
119,1646606791.7022593,-0.932278450880459
120,1646606791.7038646,-0.932278450880459
121,1646606791.7054718,-0.9321534470656453
122,1646606791.7070777,-0.9321534470656453
123,1646606791.7086906,-0.9320284432508317
124,1646606791.7102993,-0.9320284432508317
125,1646606791.711908,-0.9314034241767633
126,1646606791.7135153,-0.9314034241767633
127,1646606791.7151284,-0.9317784356212042
128,1646606791.7167363,-0.9320284432508317
129,1646606791.7183423,-0.932278450880459
130,1646606791.7199514,-0.9324034546952727
131,1646606791.7215586,-0.9324034546952727
132,1646606791.723165,-0.9324034546952727
133,1646606791.724771,-0.9324034546952727
134,1646606791.7263784,-0.9326534623249001
135,1646606791.7279866,-0.9326534623249001
136,1646606791.729597,-0.9327784661397137
137,1646606791.7312038,-0.9325284585100864
138,1646606791.7328126,-0.9321534470656453
139,1646606791.73442,-0.932278450880459
140,1646606791.7360284,-0.9324034546952727
141,1646606791.7376394,-0.9325284585100864
142,1646606791.7392464,-0.9326534623249001
143,1646606791.7408533,-0.9326534623249001
144,1646606791.74246,-0.9324034546952727
145,1646606791.744066,-0.9325284585100864
146,1646606791.745673,-0.9325284585100864
147,1646606791.7472837,-0.9325284585100864
148,1646606791.7488928,-0.9325284585100864
149,1646606791.7505035,-0.932278450880459
150,1646606791.7521102,-0.9319034394360179
151,1646606791.7537186,-0.9314034241767633
152,1646606791.7553246,-0.9314034241767633
153,1646606791.7569332,-0.9315284279915769
154,1646606791.7585444,-0.9314034241767633
155,1646606791.7601497,-0.9314034241767633
156,1646606791.7617557,-0.9312784203619495
157,1646606791.7633607,-0.9314034241767633
158,1646606791.764967,-0.9314034241767633
159,1646606791.7665737,-0.9314034241767633
160,1646606791.7681847,-0.9315284279915769
161,1646606791.7697918,-0.9312784203619495
162,1646606791.771399,-0.9311534165471358
163,1646606791.7730052,-0.9310284127323222
164,1646606791.7746115,-0.9317784356212042
165,1646606791.7762175,-0.9319034394360179
166,1646606791.777829,-0.9320284432508317
167,1646606791.7794347,-0.9324034546952727
168,1646606791.7810426,-0.9324034546952727
169,1646606791.782648,-0.9325284585100864
170,1646606791.784257,-0.9324034546952727
171,1646606791.7858665,-0.9320284432508317
172,1646606791.7874808,-0.9320284432508317
173,1646606791.7891233,-0.9321534470656453
174,1646606791.7907422,-0.9321534470656453
175,1646606791.7923524,-0.9320284432508317
176,1646606791.7939615,-0.9319034394360179
177,1646606791.79557,-0.9320284432508317
178,1646606791.7972093,-0.9321534470656453
179,1646606791.7988198,-0.9321534470656453
180,1646606791.800428,-0.932278450880459
181,1646606791.802037,-0.9324034546952727
182,1646606791.803644,-0.932278450880459
183,1646606791.805252,-0.9319034394360179
184,1646606791.806858,-0.9316534318063906
185,1646606791.8084939,-0.9317784356212042
186,1646606791.8101008,-0.9319034394360179
187,1646606791.811708,-0.9319034394360179
188,1646606791.813315,-0.9317784356212042
189,1646606791.8149204,-0.9317784356212042
190,1646606791.8165262,-0.9320284432508317
191,1646606791.818136,-0.9321534470656453
192,1646606791.8197424,-0.932278450880459
193,1646606791.821349,-0.9321534470656453
194,1646606791.822957,-0.9321534470656453
195,1646606791.824563,-0.9317784356212042
196,1646606791.8261688,-0.9316534318063906
197,1646606791.82778,-0.9316534318063906
198,1646606791.8293877,-0.9317784356212042
199,1646606791.830995,-0.9319034394360179
200,1646606791.8326008,-0.9317784356212042
201,1646606791.834207,-0.9317784356212042
202,1646606791.8358145,-0.9319034394360179
203,1646606791.8374243,-0.9317784356212042
204,1646606791.8390315,-0.9316534318063906
205,1646606791.8406377,-0.9316534318063906
206,1646606791.8422425,-0.9316534318063906
207,1646606791.843848,-0.9317784356212042
208,1646606791.8454525,-0.9311534165471358
209,1646606791.8470597,-0.9311534165471358
210,1646606791.8486695,-0.9312784203619495
211,1646606791.8502774,-0.9311534165471358
212,1646606791.851883,-0.9307784051026947
213,1646606791.8534894,-0.9309034089175084
214,1646606791.8550947,-0.9312784203619495
215,1646606791.8567295,-0.9315284279915769
216,1646606791.8583379,-0.9317784356212042
217,1646606791.8599463,-0.9317784356212042
218,1646606791.8615515,-0.9320284432508317
219,1646606791.863158,-0.9320284432508317
220,1646606791.8647635,-0.9320284432508317
221,1646606791.8663695,-0.932278450880459
222,1646606791.8679802,-0.932278450880459
223,1646606791.869586,-0.932278450880459
224,1646606791.871193,-0.9319034394360179
225,1646606791.8727987,-0.9317784356212042
226,1646606791.874405,-0.9319034394360179
227,1646606791.8760102,-0.9320284432508317
228,1646606791.8776217,-0.9320284432508317
229,1646606791.8792272,-0.9321534470656453
230,1646606791.8808324,-0.932278450880459
231,1646606791.8824387,-0.9320284432508317
232,1646606791.8840437,-0.9321534470656453
233,1646606791.8856497,-0.9321534470656453
234,1646606791.8872657,-0.932278450880459
235,1646606791.8888714,-0.9324034546952727
236,1646606791.890477,-0.9324034546952727
237,1646606791.892083,-0.9321534470656453
238,1646606791.8936872,-0.9321534470656453
239,1646606791.8952944,-0.932278450880459
240,1646606791.8969002,-0.9326534623249001
241,1646606791.8985112,-0.9327784661397137
242,1646606791.9001172,-0.9330284737693412
243,1646606791.9017248,-0.9330284737693412
244,1646606791.9033315,-0.9330284737693412
245,1646606791.9049387,-0.9330284737693412
246,1646606791.9065442,-0.9330284737693412
247,1646606791.9086313,-0.9330284737693412
248,1646606791.9102492,-0.9330284737693412
249,1646606791.9118588,-0.932278450880459
250,1646606791.9134681,-0.932278450880459
251,1646606791.9150748,-0.932278450880459
252,1646606791.9166825,-0.932278450880459
253,1646606791.9182951,-0.9321534470656453
254,1646606791.9199018,-0.9321534470656453
255,1646606791.921509,-0.9320284432508317
256,1646606791.9231153,-0.9320284432508317
257,1646606791.924722,-0.9319034394360179
258,1646606791.9263282,-0.9319034394360179
259,1646606791.9279382,-0.9319034394360179
260,1646606791.9295452,-0.9316534318063906
261,1646606791.9311523,-0.9315284279915769
262,1646606791.9327576,-0.9310284127323222
263,1646606791.9343634,-0.9312784203619495
264,1646606791.9359696,-0.9312784203619495
265,1646606791.9375803,-0.9312784203619495
266,1646606791.939188,-0.9312784203619495
267,1646606791.9407942,-0.9314034241767633
268,1646606791.9424007,-0.9312784203619495
269,1646606791.9440084,-0.9314034241767633
270,1646606791.9456208,-0.9320284432508317
271,1646606791.947233,-0.932278450880459
272,1646606791.948842,-0.9327784661397137
273,1646606791.9504502,-0.9325284585100864
274,1646606791.9520597,-0.9324034546952727
275,1646606791.9536653,-0.9321534470656453
276,1646606791.9552722,-0.932278450880459
277,1646606791.9568794,-0.9326534623249001
278,1646606791.9584897,-0.9326534623249001
279,1646606791.9600966,-0.9327784661397137
280,1646606791.9617035,-0.9329034699545274
281,1646606791.9633098,-0.9329034699545274
282,1646606791.9649174,-0.9329034699545274
283,1646606791.966524,-0.9329034699545274
284,1646606791.9681346,-0.9330284737693412
285,1646606791.9697406,-0.9329034699545274
286,1646606791.9713469,-0.932278450880459
287,1646606791.9729543,-0.9321534470656453
288,1646606791.97456,-0.9324034546952727
289,1646606791.9761672,-0.9324034546952727
290,1646606791.9777775,-0.9325284585100864
291,1646606791.9794116,-0.9325284585100864
292,1646606791.9810183,-0.9327784661397137
293,1646606791.9826248,-0.9329034699545274
294,1646606791.9842312,-0.9329034699545274
295,1646606791.9858358,-0.9330284737693412
296,1646606791.9874446,-0.9330284737693412
297,1646606791.989051,-0.9329034699545274
298,1646606791.9906561,-0.9327784661397137
299,1646606791.9922621,-0.932278450880459
300,1646606791.993869,-0.932278450880459
301,1646606791.9954734,-0.9317784356212042
302,1646606791.9970815,-0.9309034089175084
303,1646606791.9986882,-0.929903378398999
304,1646606792.0002985,-0.9285283364360485
305,1646606792.0019062,-0.9279033173619801
306,1646606792.003513,-0.9272782982879116
307,1646606792.0051177,-0.9271532944730979
308,1646606792.0067234,-0.9272782982879116
309,1646606792.008333,-0.9280283211767938
310,1646606792.0099428,-0.9282783288064211
311,1646606792.0115466,-0.9284033326212349
312,1646606792.013151,-0.9285283364360485
313,1646606792.0147557,-0.9285283364360485
314,1646606792.0163605,-0.9285283364360485
315,1646606792.0179744,-0.9285283364360485
316,1646606792.0195804,-0.9284033326212349
317,1646606792.0211885,-0.9284033326212349
318,1646606792.0227935,-0.9284033326212349
319,1646606792.024402,-0.9284033326212349
320,1646606792.0260074,-0.9284033326212349
321,1646606792.027618,-0.9284033326212349
322,1646606792.029225,-0.9286533402508622
323,1646606792.0308306,-0.9285283364360485
324,1646606792.032436,-0.9282783288064211
325,1646606792.0340407,-0.9284033326212349
326,1646606792.0356455,-0.9285283364360485
327,1646606792.037257,-0.9285283364360485
328,1646606792.0388615,-0.9286533402508622
329,1646606792.0404677,-0.9286533402508622
330,1646606792.0420752,-0.9289033478804896
331,1646606792.043679,-0.9287783440656758
332,1646606792.0452864,-0.9290283516953033
333,1646606792.0468924,-0.9291533555101169
334,1646606792.0485046,-0.9291533555101169
335,1646606792.0501118,-0.9290283516953033
336,1646606792.0517197,-0.9287783440656758
337,1646606792.0533261,-0.9287783440656758
338,1646606792.054932,-0.9286533402508622
339,1646606792.056538,-0.9287783440656758
340,1646606792.0581484,-0.9289033478804896
341,1646606792.0597563,-0.9291533555101169
342,1646606792.0613623,-0.9292783593249306
343,1646606792.062996,-0.9296533707693717
344,1646606792.064603,-0.9297783745841852
345,1646606792.0662096,-0.9296533707693717
346,1646606792.0678205,-0.9297783745841852
347,1646606792.0694282,-0.9296533707693717
348,1646606792.0710337,-0.9292783593249306
349,1646606792.07264,-0.9291533555101169
350,1646606792.0742438,-0.9291533555101169
351,1646606792.0758495,-0.9294033631397444
352,1646606792.0774589,-0.9294033631397444
353,1646606792.0790656,-0.929528366954558
354,1646606792.0806696,-0.9296533707693717
355,1646606792.0822785,-0.929528366954558
356,1646606792.0838845,-0.9296533707693717
357,1646606792.0854924,-0.929528366954558
358,1646606792.0871022,-0.9296533707693717
359,1646606792.0887403,-0.929528366954558
360,1646606792.0903482,-0.929528366954558
361,1646606792.0919564,-0.9287783440656758
362,1646606792.0935643,-0.9290283516953033
363,1646606792.0951705,-0.9290283516953033
364,1646606792.0967777,-0.9290283516953033
365,1646606792.0983846,-0.9291533555101169
366,1646606792.0999947,-0.9291533555101169
367,1646606792.1016002,-0.9292783593249306
368,1646606792.1032069,-0.9292783593249306
369,1646606792.1048117,-0.9294033631397444
370,1646606792.1064181,-0.9294033631397444
371,1646606792.108028,-0.9294033631397444
372,1646606792.1096342,-0.9294033631397444
373,1646606792.1112401,-0.9290283516953033
374,1646606792.1128466,-0.9290283516953033
375,1646606792.114453,-0.9291533555101169
376,1646606792.1160586,-0.9292783593249306
377,1646606792.1176698,-0.929903378398999
378,1646606792.1192765,-0.9301533860286263
379,1646606792.1208858,-0.9304033936582538
380,1646606792.122492,-0.9305283974730674
381,1646606792.124098,-0.9305283974730674
382,1646606792.125704,-0.9305283974730674
383,1646606792.1273131,-0.9306534012878811
384,1646606792.1289198,-0.9307784051026947
385,1646606792.130527,-0.9305283974730674
386,1646606792.1321328,-0.93027838984344
387,1646606792.1337392,-0.9304033936582538
388,1646606792.1353447,-0.9305283974730674
389,1646606792.1369503,-0.9305283974730674
390,1646606792.138562,-0.9304033936582538
391,1646606792.140168,-0.9305283974730674
392,1646606792.1417994,-0.9305283974730674
393,1646606792.143407,-0.9305283974730674
394,1646606792.145064,-0.9305283974730674
395,1646606792.1466706,-0.9306534012878811
396,1646606792.1482818,-0.9306534012878811
397,1646606792.1498866,-0.9307784051026947
398,1646606792.151492,-0.93027838984344
399,1646606792.153096,-0.9301533860286263
400,1646606792.1547005,-0.93027838984344
401,1646606792.1563046,-0.93027838984344
402,1646606792.157913,-0.9304033936582538
403,1646606792.15952,-0.9306534012878811
404,1646606792.1611233,-0.9305283974730674
405,1646606792.1627297,-0.9306534012878811
406,1646606792.164337,-0.9306534012878811
407,1646606792.1659448,-0.9305283974730674
408,1646606792.1675556,-0.9306534012878811
409,1646606792.1691604,-0.9305283974730674
410,1646606792.1707652,-0.9304033936582538
411,1646606792.172369,-0.929903378398999
412,1646606792.1739724,-0.929903378398999
413,1646606792.1755779,-0.929903378398999
414,1646606792.1771877,-0.9300283822138127
415,1646606792.1787944,-0.929903378398999
416,1646606792.1804001,-0.9300283822138127
417,1646606792.1820054,-0.9301533860286263
418,1646606792.1836114,-0.9300283822138127
419,1646606792.1852167,-0.9301533860286263
420,1646606792.1868227,-0.9301533860286263
421,1646606792.188464,-0.9300283822138127
422,1646606792.190074,-0.9300283822138127
423,1646606792.1916797,-0.9294033631397444
424,1646606792.1932852,-0.9291533555101169
425,1646606792.1948903,-0.9291533555101169
426,1646606792.1964936,-0.9291533555101169
427,1646606792.198102,-0.9294033631397444
428,1646606792.1997082,-0.9292783593249306
429,1646606792.201313,-0.9292783593249306
430,1646606792.202919,-0.9294033631397444
431,1646606792.2045243,-0.9294033631397444
432,1646606792.206129,-0.9294033631397444
433,1646606792.2077398,-0.9294033631397444
434,1646606792.2093453,-0.9292783593249306
435,1646606792.210952,-0.9291533555101169
436,1646606792.2125583,-0.9289033478804896
437,1646606792.2141645,-0.9290283516953033
438,1646606792.2157688,-0.9289033478804896
439,1646606792.2173772,-0.9290283516953033
440,1646606792.2189841,-0.9291533555101169
441,1646606792.2205899,-0.9291533555101169
442,1646606792.2221954,-0.9290283516953033
443,1646606792.223801,-0.9291533555101169
444,1646606792.2254062,-0.9290283516953033
445,1646606792.2270117,-0.9289033478804896
446,1646606792.228621,-0.9290283516953033
447,1646606792.2302265,-0.9287783440656758
448,1646606792.2318065,-0.9287783440656758
449,1646606792.233177,-0.9289033478804896
450,1646606792.234547,-0.9291533555101169
451,1646606792.2359169,-0.9292783593249306
452,1646606792.2372887,-0.9292783593249306
453,1646606792.238659,-0.9294033631397444
454,1646606792.2400286,-0.9294033631397444
455,1646606792.2413988,-0.9296533707693717
456,1646606792.2427697,-0.9296533707693717
457,1646606792.2441397,-0.929528366954558
458,1646606792.2455099,-0.929903378398999
459,1646606792.2468798,-0.9297783745841852
460,1646606792.2482512,-0.9300283822138127
461,1646606792.2496219,-0.9300283822138127
462,1646606792.250992,-0.929903378398999
463,1646606792.252363,-0.929528366954558
464,1646606792.2537339,-0.929528366954558
465,1646606792.255104,-0.9296533707693717
466,1646606792.256474,-0.9296533707693717
467,1646606792.2578459,-0.929528366954558
468,1646606792.2592156,-0.929528366954558
469,1646606792.2605855,-0.929528366954558
470,1646606792.261968,-0.929528366954558
