,Time (s),Signal (V)
0,1643743491.80372,-0.003250099185155797
1,1643743491.80942,-0.003250099185155797
2,1643743491.809808,-0.003250099185155797
3,1643743491.8101747,-0.003250099185155797
4,1643743491.8105528,-0.0031250953703421125
5,1643743491.8109176,-0.0031250953703421125
6,1643743491.81128,-0.0031250953703421125
7,1643743491.8116426,-0.0031250953703421125
8,1643743491.8120043,-0.0031250953703421125
9,1643743491.8123653,-0.0031250953703421125
10,1643743491.8127275,-0.0031250953703421125
11,1643743491.8130884,-0.0031250953703421125
12,1643743491.8134487,-0.0031250953703421125
13,1643743491.8138099,-0.0031250953703421125
14,1643743491.8141706,-0.0031250953703421125
15,1643743491.8145328,-0.0031250953703421125
16,1643743491.8148947,-0.0030000915555284282
17,1643743491.8152559,-0.0030000915555284282
18,1643743491.815617,-0.0030000915555284282
19,1643743491.8159769,-0.0030000915555284282
20,1643743491.816337,-0.0030000915555284282
21,1643743491.8166976,-0.0028750877407147436
22,1643743491.8170578,-0.0028750877407147436
23,1643743491.8174183,-0.0028750877407147436
24,1643743491.8177786,-0.0028750877407147436
25,1643743491.8181388,-0.0028750877407147436
26,1643743491.8185031,-0.0028750877407147436
27,1643743491.8188653,-0.0030000915555284282
28,1643743491.819226,-0.0030000915555284282
29,1643743491.8195865,-0.0030000915555284282
30,1643743491.8199475,-0.0030000915555284282
31,1643743491.8203082,-0.0030000915555284282
32,1643743491.8206685,-0.0030000915555284282
33,1643743491.821029,-0.0030000915555284282
34,1643743491.8213892,-0.0030000915555284282
35,1643743491.8217492,-0.0030000915555284282
36,1643743491.8221107,-0.0030000915555284282
37,1643743491.822471,-0.0030000915555284282
38,1643743491.822831,-0.0030000915555284282
39,1643743491.8231916,-0.0030000915555284282
40,1643743491.8235517,-0.0030000915555284282
41,1643743491.8239124,-0.0030000915555284282
42,1643743491.824273,-0.0030000915555284282
43,1643743491.8246338,-0.0030000915555284282
44,1643743491.8249936,-0.0030000915555284282
45,1643743491.825354,-0.0028750877407147436
46,1643743491.8257139,-0.0028750877407147436
47,1643743491.8260746,-0.0028750877407147436
48,1643743491.826435,-0.0028750877407147436
49,1643743491.826795,-0.0028750877407147436
50,1643743491.827155,-0.0028750877407147436
51,1643743491.8275154,-0.0030000915555284282
52,1643743491.8278756,-0.0030000915555284282
53,1643743491.828236,-0.0030000915555284282
54,1643743491.8286269,-0.0030000915555284282
55,1643743491.8289888,-0.0030000915555284282
56,1643743491.8293502,-0.0030000915555284282
57,1643743491.8297105,-0.0030000915555284282
58,1643743491.8300703,-0.0030000915555284282
59,1643743491.830432,-0.0030000915555284282
60,1643743491.8307924,-0.0030000915555284282
61,1643743491.831153,-0.0030000915555284282
62,1643743491.8315136,-0.0031250953703421125
63,1643743491.831874,-0.0031250953703421125
64,1643743491.832234,-0.0031250953703421125
65,1643743491.8325949,-0.0031250953703421125
66,1643743491.8329544,-0.0031250953703421125
67,1643743491.833314,-0.0031250953703421125
68,1643743491.8336747,-0.003250099185155797
69,1643743491.8340344,-0.003250099185155797
70,1643743491.8343945,-0.003250099185155797
71,1643743491.8347545,-0.003250099185155797
72,1643743491.8351142,-0.003250099185155797
73,1643743491.8354745,-0.003250099185155797
74,1643743491.8358338,-0.003250099185155797
75,1643743491.836194,-0.003250099185155797
76,1643743491.8365543,-0.003250099185155797
77,1643743491.8369138,-0.003250099185155797
78,1643743491.8372736,-0.003250099185155797
79,1643743491.837634,-0.003250099185155797
80,1643743491.8379943,-0.003250099185155797
81,1643743491.838356,-0.003250099185155797
82,1643743491.838717,-0.003250099185155797
83,1643743491.8390772,-0.003250099185155797
84,1643743491.8394365,-0.003250099185155797
85,1643743491.8397973,-0.003250099185155797
86,1643743491.8401573,-0.003250099185155797
87,1643743491.8405166,-0.003250099185155797
88,1643743491.840877,-0.003250099185155797
89,1643743491.8412378,-0.003250099185155797
90,1643743491.8415976,-0.003250099185155797
91,1643743491.8419578,-0.003250099185155797
92,1643743491.8423173,-0.003250099185155797
93,1643743491.8426774,-0.003250099185155797
94,1643743491.8430371,-0.003250099185155797
95,1643743491.843397,-0.003250099185155797
96,1643743491.8437562,-0.003250099185155797
97,1643743491.8441164,-0.003250099185155797
98,1643743491.844476,-0.003250099185155797
99,1643743491.844835,-0.003250099185155797
100,1643743491.8451953,-0.003250099185155797
101,1643743491.8455548,-0.003250099185155797
102,1643743491.8459144,-0.003250099185155797
103,1643743491.8462744,-0.003250099185155797
104,1643743491.846634,-0.003250099185155797
105,1643743491.8470051,-0.003250099185155797
106,1643743491.8473666,-0.003250099185155797
107,1643743491.8477278,-0.003250099185155797
108,1643743491.8480878,-0.003250099185155797
109,1643743491.8484514,-0.003250099185155797
110,1643743491.848815,-0.003250099185155797
111,1643743491.849178,-0.003250099185155797
112,1643743491.849541,-0.003250099185155797
113,1643743491.8499033,-0.003250099185155797
114,1643743491.8502657,-0.003250099185155797
115,1643743491.8506277,-0.003250099185155797
116,1643743491.8509896,-0.003250099185155797
117,1643743491.8513522,-0.003250099185155797
118,1643743491.8517144,-0.003250099185155797
119,1643743491.8520763,-0.003250099185155797
120,1643743491.852439,-0.003250099185155797
121,1643743491.852801,-0.003250099185155797
122,1643743491.8531635,-0.003250099185155797
123,1643743491.8535259,-0.003250099185155797
124,1643743491.8538876,-0.003250099185155797
125,1643743491.8542492,-0.003250099185155797
126,1643743491.8546112,-0.0033751029999694814
127,1643743491.854978,-0.0033751029999694814
128,1643743491.855341,-0.0033751029999694814
129,1643743491.855703,-0.0033751029999694814
130,1643743491.8560643,-0.0033751029999694814
131,1643743491.856426,-0.0033751029999694814
132,1643743491.8568003,-0.003500106814783166
133,1643743491.857163,-0.003500106814783166
134,1643743491.8575256,-0.003500106814783166
135,1643743491.8578877,-0.003500106814783166
136,1643743491.8582494,-0.003500106814783166
137,1643743491.8586257,-0.003500106814783166
138,1643743491.8589892,-0.003500106814783166
139,1643743491.8593524,-0.003500106814783166
140,1643743491.8597147,-0.003500106814783166
141,1643743491.8600762,-0.003500106814783166
142,1643743491.860438,-0.003500106814783166
143,1643743491.8608,-0.003500106814783166
144,1643743491.8611624,-0.003500106814783166
145,1643743491.8615234,-0.003500106814783166
146,1643743491.8618863,-0.003500106814783166
147,1643743491.862248,-0.003500106814783166
148,1643743491.8626094,-0.003500106814783166
149,1643743491.8629735,-0.003500106814783166
150,1643743491.8633358,-0.003500106814783166
151,1643743491.8636973,-0.003500106814783166
152,1643743491.8640597,-0.003500106814783166
153,1643743491.8644214,-0.003500106814783166
154,1643743491.8647828,-0.003500106814783166
155,1643743491.865146,-0.0033751029999694814
156,1643743491.8655074,-0.0033751029999694814
157,1643743491.8658688,-0.0033751029999694814
158,1643743491.8662305,-0.0033751029999694814
159,1643743491.8665917,-0.0033751029999694814
160,1643743491.8669531,-0.0033751029999694814
161,1643743491.8673153,-0.0033751029999694814
162,1643743491.867677,-0.0033751029999694814
163,1643743491.8680384,-0.0033751029999694814
164,1643743491.8684027,-0.0033751029999694814
165,1643743491.8687627,-0.0033751029999694814
166,1643743491.869125,-0.0033751029999694814
167,1643743491.8694866,-0.003250099185155797
168,1643743491.8698483,-0.003250099185155797
169,1643743491.8702104,-0.003250099185155797
170,1643743491.870572,-0.003250099185155797
171,1643743491.870934,-0.003250099185155797
172,1643743491.8712964,-0.003250099185155797
173,1643743491.871658,-0.0031250953703421125
174,1643743491.8720229,-0.0031250953703421125
175,1643743491.8723848,-0.0031250953703421125
176,1643743491.8727467,-0.0031250953703421125
177,1643743491.8731084,-0.0031250953703421125
178,1643743491.873471,-0.0031250953703421125
179,1643743491.8738325,-0.0031250953703421125
180,1643743491.8741941,-0.0031250953703421125
181,1643743491.874557,-0.0031250953703421125
182,1643743491.8749185,-0.0031250953703421125
183,1643743491.8752801,-0.0031250953703421125
184,1643743491.8756423,-0.0031250953703421125
185,1643743491.8760033,-0.0030000915555284282
186,1643743491.8763852,-0.0030000915555284282
187,1643743491.8767486,-0.0030000915555284282
188,1643743491.8771107,-0.0030000915555284282
189,1643743491.8774724,-0.0030000915555284282
190,1643743491.8778346,-0.0030000915555284282
191,1643743491.878196,-0.0030000915555284282
192,1643743491.87856,-0.0030000915555284282
193,1643743491.8789206,-0.0030000915555284282
194,1643743491.879283,-0.0030000915555284282
195,1643743491.8796449,-0.0030000915555284282
196,1643743491.8800073,-0.0031250953703421125
197,1643743491.8803687,-0.0031250953703421125
198,1643743491.880731,-0.0031250953703421125
199,1643743491.8810923,-0.0031250953703421125
200,1643743491.881454,-0.0031250953703421125
201,1643743491.8818164,-0.0031250953703421125
202,1643743491.8821788,-0.0031250953703421125
203,1643743491.8825407,-0.0031250953703421125
204,1643743491.882903,-0.0031250953703421125
205,1643743491.883264,-0.0031250953703421125
206,1643743491.8836536,-0.0031250953703421125
207,1643743491.8840187,-0.0031250953703421125
208,1643743491.8843808,-0.0031250953703421125
209,1643743491.8847427,-0.0031250953703421125
210,1643743491.8851054,-0.0031250953703421125
211,1643743491.8854663,-0.0031250953703421125
212,1643743491.885828,-0.0031250953703421125
213,1643743491.88619,-0.0031250953703421125
214,1643743491.886552,-0.003250099185155797
215,1643743491.8869147,-0.003250099185155797
216,1643743491.8872766,-0.003250099185155797
217,1643743491.8876386,-0.003250099185155797
218,1643743491.8880007,-0.003250099185155797
219,1643743491.888364,-0.003250099185155797
220,1643743491.8887258,-0.003250099185155797
221,1643743491.889088,-0.003250099185155797
222,1643743491.8894498,-0.003250099185155797
223,1643743491.8898118,-0.003250099185155797
224,1643743491.8901742,-0.003250099185155797
225,1643743491.8905365,-0.003250099185155797
226,1643743491.8908987,-0.003250099185155797
227,1643743491.8912613,-0.003250099185155797
228,1643743491.891623,-0.003250099185155797
229,1643743491.8919847,-0.003250099185155797
230,1643743491.8923473,-0.003250099185155797
231,1643743491.8927088,-0.003250099185155797
232,1643743491.8930707,-0.003250099185155797
233,1643743491.893433,-0.003250099185155797
234,1643743491.8937955,-0.003250099185155797
235,1643743491.8941574,-0.003250099185155797
236,1643743491.8945193,-0.003250099185155797
237,1643743491.8948812,-0.003250099185155797
238,1643743491.895243,-0.003250099185155797
239,1643743491.8956048,-0.003250099185155797
240,1643743491.8959668,-0.003250099185155797
241,1643743491.8963282,-0.003250099185155797
242,1643743491.8966901,-0.003250099185155797
243,1643743491.8970518,-0.0031250953703421125
244,1643743491.8974147,-0.0031250953703421125
245,1643743491.8977757,-0.0031250953703421125
246,1643743491.8981373,-0.0031250953703421125
247,1643743491.8985002,-0.0031250953703421125
248,1643743491.8988621,-0.0031250953703421125
249,1643743491.899224,-0.0031250953703421125
250,1643743491.899587,-0.0031250953703421125
251,1643743491.8999484,-0.0031250953703421125
252,1643743491.90031,-0.0031250953703421125
253,1643743491.9006717,-0.0031250953703421125
254,1643743491.9010334,-0.0030000915555284282
255,1643743491.9013948,-0.0030000915555284282
256,1643743491.9017575,-0.0030000915555284282
257,1643743491.902119,-0.0030000915555284282
258,1643743491.902481,-0.0030000915555284282
259,1643743491.9028554,-0.0030000915555284282
260,1643743491.9032173,-0.0031250953703421125
261,1643743491.9035797,-0.0031250953703421125
262,1643743491.9039419,-0.0031250953703421125
263,1643743491.9043036,-0.0031250953703421125
264,1643743491.9046652,-0.0031250953703421125
265,1643743491.9050274,-0.0031250953703421125
266,1643743491.9053886,-0.0031250953703421125
267,1643743491.90575,-0.0031250953703421125
268,1643743491.906112,-0.0031250953703421125
269,1643743491.9064732,-0.0031250953703421125
270,1643743491.9068358,-0.0031250953703421125
271,1643743491.9071977,-0.0031250953703421125
272,1643743491.9075596,-0.0031250953703421125
273,1643743491.9079225,-0.0031250953703421125
274,1643743491.908296,-0.0031250953703421125
275,1643743491.9086587,-0.0031250953703421125
276,1643743491.909021,-0.0031250953703421125
277,1643743491.9093826,-0.003250099185155797
278,1643743491.9097445,-0.003250099185155797
279,1643743491.910107,-0.003250099185155797
280,1643743491.9104686,-0.003250099185155797
281,1643743491.9108303,-0.003250099185155797
282,1643743491.911193,-0.003250099185155797
283,1643743491.911554,-0.003250099185155797
284,1643743491.9119155,-0.003250099185155797
285,1643743491.9122777,-0.003250099185155797
286,1643743491.9126399,-0.003250099185155797
287,1643743491.9130015,-0.003250099185155797
288,1643743491.913364,-0.003250099185155797
289,1643743491.9137259,-0.003500106814783166
290,1643743491.9140878,-0.003500106814783166
291,1643743491.9144502,-0.003500106814783166
292,1643743491.9148116,-0.003500106814783166
293,1643743491.9151735,-0.003500106814783166
294,1643743491.9155352,-0.003500106814783166
295,1643743491.9158974,-0.003500106814783166
296,1643743491.9162586,-0.003500106814783166
297,1643743491.9166205,-0.003500106814783166
298,1643743491.916983,-0.003500106814783166
299,1643743491.9173453,-0.003500106814783166
300,1643743491.917707,-0.003500106814783166
301,1643743491.9180686,-0.003500106814783166
302,1643743491.918431,-0.003500106814783166
303,1643743491.9187922,-0.003500106814783166
304,1643743491.9191542,-0.003500106814783166
305,1643743491.9195158,-0.003500106814783166
306,1643743491.919878,-0.003500106814783166
307,1643743491.9202497,-0.0033751029999694814
308,1643743491.9206128,-0.0033751029999694814
309,1643743491.9209743,-0.0033751029999694814
310,1643743491.9213367,-0.0033751029999694814
311,1643743491.921699,-0.0033751029999694814
312,1643743491.9220607,-0.003250099185155797
313,1643743491.9224222,-0.003250099185155797
314,1643743491.922785,-0.003250099185155797
315,1643743491.9231465,-0.003250099185155797
316,1643743491.9235082,-0.003250099185155797
317,1643743491.9238703,-0.003250099185155797
318,1643743491.9242318,-0.0031250953703421125
319,1643743491.9245932,-0.0031250953703421125
320,1643743491.9249551,-0.0031250953703421125
321,1643743491.9253168,-0.0031250953703421125
322,1643743491.9256775,-0.0031250953703421125
323,1643743491.9260392,-0.0031250953703421125
324,1643743491.9264011,-0.0031250953703421125
325,1643743491.926763,-0.0031250953703421125
326,1643743491.9271243,-0.0031250953703421125
327,1643743491.927486,-0.0031250953703421125
328,1643743491.927848,-0.0031250953703421125
329,1643743491.9282103,-0.0031250953703421125
330,1643743491.9285727,-0.0031250953703421125
331,1643743491.9289355,-0.0031250953703421125
332,1643743491.9292972,-0.0031250953703421125
333,1643743491.929659,-0.0031250953703421125
334,1643743491.930021,-0.0031250953703421125
335,1643743491.9303825,-0.0031250953703421125
336,1643743491.9307444,-0.0031250953703421125
337,1643743491.9311068,-0.0031250953703421125
338,1643743491.9314685,-0.0031250953703421125
339,1643743491.9318302,-0.0031250953703421125
340,1643743491.932193,-0.0031250953703421125
341,1643743491.9325545,-0.0031250953703421125
342,1643743491.9329162,-0.0031250953703421125
343,1643743491.9332788,-0.0031250953703421125
344,1643743491.9336402,-0.0031250953703421125
345,1643743491.9340024,-0.0031250953703421125
346,1643743491.934365,-0.0031250953703421125
347,1643743491.9347265,-0.0030000915555284282
348,1643743491.9350882,-0.0030000915555284282
349,1643743491.9354498,-0.0030000915555284282
350,1643743491.9358115,-0.0030000915555284282
351,1643743491.9361732,-0.0030000915555284282
352,1643743491.9365351,-0.0030000915555284282
353,1643743491.936897,-0.0031250953703421125
354,1643743491.9372594,-0.0031250953703421125
355,1643743491.9376218,-0.0031250953703421125
356,1643743491.9379835,-0.0031250953703421125
357,1643743491.9383457,-0.0031250953703421125
358,1643743491.9387078,-0.0031250953703421125
359,1643743491.9390695,-0.003250099185155797
360,1643743491.9394317,-0.003250099185155797
361,1643743491.9397929,-0.003250099185155797
362,1643743491.9401546,-0.003250099185155797
363,1643743491.9405172,-0.003250099185155797
364,1643743491.9408789,-0.003250099185155797
365,1643743491.9412408,-0.0033751029999694814
366,1643743491.9416034,-0.0033751029999694814
367,1643743491.941965,-0.0033751029999694814
368,1643743491.9423268,-0.0033751029999694814
369,1643743491.942689,-0.0033751029999694814
370,1643743491.9430535,-0.0033751029999694814
371,1643743491.9434175,-0.003500106814783166
372,1643743491.9437802,-0.003500106814783166
373,1643743491.9441423,-0.003500106814783166
374,1643743491.944504,-0.003500106814783166
375,1643743491.9448667,-0.003500106814783166
376,1643743491.9452283,-0.0033751029999694814
377,1643743491.9455903,-0.0033751029999694814
378,1643743491.9459517,-0.0033751029999694814
379,1643743491.9463134,-0.0033751029999694814
380,1643743491.9466753,-0.0033751029999694814
381,1643743491.9470367,-0.0033751029999694814
382,1643743491.9473984,-0.003250099185155797
383,1643743491.9477606,-0.003250099185155797
384,1643743491.9481227,-0.003250099185155797
385,1643743491.9484847,-0.003250099185155797
386,1643743491.9488602,-0.003250099185155797
387,1643743491.9492218,-0.003250099185155797
388,1643743491.9495835,-0.003250099185155797
389,1643743491.9499462,-0.003250099185155797
390,1643743491.9503076,-0.003250099185155797
391,1643743491.9506693,-0.003250099185155797
392,1643743491.9510314,-0.003250099185155797
393,1643743491.9513934,-0.003250099185155797
394,1643743491.9517553,-0.003250099185155797
395,1643743491.9521174,-0.003250099185155797
396,1643743491.9524791,-0.003250099185155797
397,1643743491.95284,-0.003250099185155797
398,1643743491.9532022,-0.003250099185155797
399,1643743491.953564,-0.003250099185155797
400,1643743491.9539254,-0.003250099185155797
401,1643743491.9542873,-0.003250099185155797
402,1643743491.9546487,-0.003250099185155797
403,1643743491.9550097,-0.003250099185155797
404,1643743491.9553719,-0.003250099185155797
405,1643743491.9557333,-0.0033751029999694814
406,1643743491.9560962,-0.0033751029999694814
407,1643743491.9564586,-0.0033751029999694814
408,1643743491.9568295,-0.0033751029999694814
409,1643743491.9571927,-0.0033751029999694814
410,1643743491.9575543,-0.0033751029999694814
411,1643743491.9579155,-0.003250099185155797
412,1643743491.9582899,-0.003250099185155797
413,1643743491.9586506,-0.003250099185155797
414,1643743491.9590104,-0.003250099185155797
415,1643743491.9593706,-0.003250099185155797
416,1643743491.95973,-0.003250099185155797
417,1643743491.96009,-0.003250099185155797
418,1643743491.9604506,-0.003250099185155797
419,1643743491.96081,-0.003250099185155797
420,1643743491.9611697,-0.003250099185155797
421,1643743491.9615302,-0.003250099185155797
422,1643743491.9618897,-0.003250099185155797
423,1643743491.9622495,-0.003250099185155797
424,1643743491.9626102,-0.003250099185155797
425,1643743491.9629698,-0.003250099185155797
426,1643743491.9633296,-0.003250099185155797
427,1643743491.9636898,-0.003250099185155797
428,1643743491.9640493,-0.003250099185155797
429,1643743491.9644089,-0.0033751029999694814
430,1643743491.9647691,-0.0033751029999694814
431,1643743491.9651287,-0.0033751029999694814
432,1643743491.9654884,-0.0033751029999694814
433,1643743491.9658487,-0.0033751029999694814
434,1643743491.966373,-0.0033751029999694814
435,1643743491.9667377,-0.0033751029999694814
436,1643743491.9671,-0.0033751029999694814
437,1643743491.967461,-0.0033751029999694814
438,1643743491.9678228,-0.0033751029999694814
439,1643743491.9681838,-0.0033751029999694814
440,1643743491.9685485,-0.0036251106295968507
441,1643743491.9689126,-0.0036251106295968507
442,1643743491.969275,-0.0036251106295968507
