,Time (s),Signal (V)
0,1646933680.4410186,-0.3657611621448409
1,1646933680.445348,-0.36638618121890926
2,1646933680.4467359,-0.3670112002929777
3,1646933680.4481106,-0.36763621936704616
4,1646933680.4494827,-0.3682612384411146
5,1646933680.4508538,-0.36963628040406504
6,1646933680.4522233,-0.3703863032929472
7,1646933680.4535952,-0.3710113223670156
8,1646933680.454964,-0.371636341441084
9,1646933680.4563332,-0.37226136051515246
10,1646933680.4577014,-0.37338639484847563
11,1646933680.4590695,-0.3738864101077303
12,1646933680.4604373,-0.37451142918179875
13,1646933680.4618056,-0.3748864406262398
14,1646933680.4631765,-0.37551145970030825
15,1646933680.4645452,-0.37576146732993565
16,1646933680.4659133,-0.3762614825891904
17,1646933680.4672809,-0.37663649403363136
18,1646933680.468648,-0.37663649403363136
19,1646933680.4700153,-0.3767614978484451
20,1646933680.471383,-0.37688650166325877
21,1646933680.4727676,-0.37688650166325877
22,1646933680.4741356,-0.37688650166325877
23,1646933680.4755034,-0.37688650166325877
24,1646933680.4768705,-0.3767614978484451
25,1646933680.4782376,-0.37663649403363136
26,1646933680.4796052,-0.37663649403363136
27,1646933680.4809718,-0.3765114902188177
28,1646933680.4823413,-0.3762614825891904
29,1646933680.483716,-0.3762614825891904
30,1646933680.485089,-0.376011474959563
31,1646933680.4864612,-0.3758864711447493
32,1646933680.4878328,-0.37551145970030825
33,1646933680.4892035,-0.37476143681142615
34,1646933680.4905744,-0.3742614215521714
35,1646933680.4919453,-0.37376140629291665
36,1646933680.4933171,-0.37326139103366196
37,1646933680.4946878,-0.3728863795892209
38,1646933680.4960587,-0.371636341441084
39,1646933680.4974296,-0.3710113223670156
40,1646933680.4987998,-0.37051130710776087
41,1646933680.50017,-0.3701362956633198
42,1646933680.5015426,-0.36976128421887877
43,1646933680.502914,-0.3693862727744377
44,1646933680.5042844,-0.36863624988555554
45,1646933680.5056548,-0.36838624225592825
46,1646933680.5070243,-0.36813623462630085
47,1646933680.508395,-0.3680112308114872
48,1646933680.5097651,-0.3678862269966735
49,1646933680.5111358,-0.36763621936704616
50,1646933680.5125058,-0.36763621936704616
51,1646933680.5138762,-0.36751121555223243
52,1646933680.5152462,-0.36751121555223243
53,1646933680.516616,-0.36751121555223243
54,1646933680.517986,-0.3672612079226051
55,1646933680.5193563,-0.3671362041077914
56,1646933680.5207283,-0.366886196478164
57,1646933680.5220988,-0.36676119266335033
58,1646933680.5234692,-0.36651118503372293
59,1646933680.5248406,-0.36638618121890926
60,1646933680.5262108,-0.36588616595965456
61,1646933680.5275817,-0.3657611621448409
62,1646933680.5289524,-0.3655111545152135
63,1646933680.530323,-0.36526114688558614
64,1646933680.5316954,-0.36501113925595874
65,1646933680.5330658,-0.364511123996704
66,1646933680.534436,-0.3633860896633808
67,1646933680.5358067,-0.3628860744041261
68,1646933680.5371773,-0.3626360667744988
69,1646933680.538549,-0.3623860591448714
70,1646933680.5399196,-0.3622610553300577
71,1646933680.5412908,-0.36076100955229345
72,1646933680.5426607,-0.35963597521897034
73,1646933680.5440314,-0.35838593707083344
74,1646933680.5454013,-0.357385906552324
75,1646933680.546772,-0.35651087984862817
76,1646933680.5481532,-0.3563858760338145
77,1646933680.5495243,-0.3570108951078829
78,1646933680.5508957,-0.3576359141819514
79,1646933680.552266,-0.35826093325601976
80,1646933680.5536363,-0.35863594470046084
81,1646933680.555007,-0.3585109408856471
82,1646933680.5563776,-0.35863594470046084
83,1646933680.557748,-0.3587609485152745
84,1646933680.559118,-0.35926096377452926
85,1646933680.5604887,-0.35963597521897034
86,1646933680.5618587,-0.35938596758934294
87,1646933680.5632308,-0.35901095614490186
88,1646933680.564615,-0.35751091036713767
89,1646933680.5659873,-0.3567608874782556
90,1646933680.5673583,-0.3560108645893734
91,1646933680.5687292,-0.3556358531449324
92,1646933680.5701,-0.3552608417004914
93,1646933680.57147,-0.3548858302560503
94,1646933680.5728436,-0.3548858302560503
95,1646933680.5742152,-0.355010834070864
96,1646933680.5755863,-0.355010834070864
97,1646933680.576957,-0.3551358378856777
98,1646933680.578328,-0.3552608417004914
99,1646933680.579698,-0.3555108493301187
100,1646933680.5810688,-0.35538584551530505
101,1646933680.5824392,-0.3552608417004914
102,1646933680.5838099,-0.3548858302560503
103,1646933680.5851796,-0.35476082644123663
104,1646933680.5865505,-0.3541358073671682
105,1646933680.587921,-0.3538857997375408
106,1646933680.5892913,-0.35351078829309973
107,1646933680.5906625,-0.35338578447828606
108,1646933680.5920336,-0.3532607806634724
109,1646933680.593404,-0.353010773033845
110,1646933680.5947747,-0.35288576921903136
111,1646933680.5961447,-0.35288576921903136
112,1646933680.597515,-0.3531357768486587
113,1646933680.5988848,-0.35338578447828606
114,1646933680.6002545,-0.35351078829309973
115,1646933680.6016243,-0.3538857997375408
116,1646933680.6029947,-0.35376079592272713
117,1646933680.6043653,-0.35363579210791346
118,1646933680.605735,-0.35351078829309973
119,1646933680.607105,-0.35363579210791346
120,1646933680.608475,-0.35363579210791346
121,1646933680.6098454,-0.35376079592272713
122,1646933680.6112158,-0.35376079592272713
123,1646933680.6125855,-0.3542608111819819
124,1646933680.6139555,-0.35451081881160923
125,1646933680.6153266,-0.35476082644123663
126,1646933680.6167068,-0.355010834070864
127,1646933680.618091,-0.3551358378856777
128,1646933680.6194632,-0.3551358378856777
129,1646933680.620833,-0.3548858302560503
130,1646933680.622204,-0.35451081881160923
131,1646933680.6235783,-0.3540108035523545
132,1646933680.624948,-0.35288576921903136
133,1646933680.626318,-0.35226075014496294
134,1646933680.627689,-0.35151072725608085
135,1646933680.629059,-0.3507607043671987
136,1646933680.6304293,-0.35001068147831665
137,1646933680.631799,-0.3495106662190619
138,1646933680.6331687,-0.34876064333017975
139,1646933680.6345377,-0.3486356395153661
140,1646933680.6359081,-0.34876064333017975
141,1646933680.6372776,-0.34876064333017975
142,1646933680.6386476,-0.3488856471449934
143,1646933680.6400166,-0.34901065095980716
144,1646933680.6413867,-0.34901065095980716
145,1646933680.6427717,-0.34901065095980716
146,1646933680.644142,-0.34901065095980716
147,1646933680.6455116,-0.34913565477462083
148,1646933680.6468835,-0.34913565477462083
149,1646933680.6482623,-0.3492606585894345
150,1646933680.6496346,-0.3492606585894345
151,1646933680.6510055,-0.3493856624042482
152,1646933680.6523776,-0.34976067384868925
153,1646933680.6537528,-0.3498856776635029
154,1646933680.655123,-0.3501356852931303
155,1646933680.6564934,-0.350260689107944
156,1646933680.6578636,-0.35051069673757135
157,1646933680.6592333,-0.35051069673757135
158,1646933680.6606033,-0.35051069673757135
159,1646933680.6619735,-0.350635700552385
160,1646933680.663344,-0.350635700552385
161,1646933680.6647143,-0.3503856929227576
162,1646933680.6660843,-0.35051069673757135
163,1646933680.6674562,-0.350260689107944
164,1646933680.6688266,-0.3501356852931303
165,1646933680.6701963,-0.3498856776635029
166,1646933680.6715689,-0.34976067384868925
167,1646933680.6729398,-0.3496356700338756
168,1646933680.67431,-0.3492606585894345
169,1646933680.67568,-0.34901065095980716
170,1646933680.6770496,-0.34876064333017975
171,1646933680.6784189,-0.34813562425611133
172,1646933680.6797888,-0.34776061281167026
173,1646933680.681159,-0.34738560136722924
174,1646933680.682533,-0.3470105899227882
175,1646933680.6839042,-0.34663557847834714
176,1646933680.6852827,-0.3457605517746513
177,1646933680.6866772,-0.34538554033021024
178,1646933680.688049,-0.34476052125614187
179,1646933680.6894207,-0.3445105136265145
180,1646933680.6907916,-0.3442605059968871
181,1646933680.6921616,-0.3440104983672598
182,1646933680.6935334,-0.3436354869228187
183,1646933680.6949046,-0.3433854792931913
184,1646933680.6962748,-0.343510483108005
185,1646933680.6976445,-0.3432604754783776
186,1646933680.6990147,-0.3432604754783776
187,1646933680.7003846,-0.3432604754783776
188,1646933680.7017548,-0.34313547166356395
189,1646933680.7031262,-0.3430104678487503
190,1646933680.7044961,-0.34288546403393655
191,1646933680.7058654,-0.3427604602191229
192,1646933680.7072356,-0.3422604449598682
193,1646933680.7086117,-0.34163542588579976
194,1646933680.7099826,-0.3412604144413587
195,1646933680.7113526,-0.3408854029969176
196,1646933680.7127233,-0.34038538773766286
197,1646933680.7140942,-0.34001037629322184
198,1646933680.7154639,-0.33888534195989867
199,1646933680.7168343,-0.3383853267006439
200,1646933680.7182052,-0.33788531144138917
201,1646933680.7195747,-0.33751029999694815
202,1646933680.720948,-0.33713528855250713
203,1646933680.722323,-0.33676027710806605
204,1646933680.723701,-0.33601025421918396
205,1646933680.7250714,-0.3358852504043703
206,1646933680.726441,-0.3356352427747429
207,1646933680.7278109,-0.3355102389599292
208,1646933680.7291806,-0.33538523514511553
209,1646933680.7305503,-0.33538523514511553
210,1646933680.7319212,-0.33538523514511553
211,1646933680.7332919,-0.33538523514511553
212,1646933680.7346628,-0.3356352427747429
213,1646933680.736033,-0.3355102389599292
214,1646933680.7374039,-0.3356352427747429
215,1646933680.73879,-0.33601025421918396
216,1646933680.740162,-0.33613525803399763
217,1646933680.741547,-0.3362602618488113
218,1646933680.742929,-0.3365102694784387
219,1646933680.744299,-0.3366352732932524
220,1646933680.7456694,-0.33713528855250713
221,1646933680.7470398,-0.3372602923673208
222,1646933680.7484095,-0.33751029999694815
223,1646933680.7497792,-0.33751029999694815
224,1646933680.7511497,-0.33788531144138917
225,1646933680.75252,-0.3380103152562029
226,1646933680.75389,-0.33826032288583024
227,1646933680.7552602,-0.33851033051545765
228,1646933680.7566302,-0.3386353343302713
229,1646933680.7580004,-0.338760338145085
230,1646933680.7593708,-0.33888534195989867
231,1646933680.7607405,-0.3386353343302713
232,1646933680.7621114,-0.3386353343302713
233,1646933680.7634811,-0.3383853267006439
234,1646933680.7648563,-0.33813531907101657
235,1646933680.766227,-0.33788531144138917
236,1646933680.7675967,-0.33751029999694815
237,1646933680.7689664,-0.3368852809228797
238,1646933680.7703362,-0.336385265663625
239,1646933680.7717063,-0.3362602618488113
240,1646933680.7730768,-0.3358852504043703
241,1646933680.774448,-0.3356352427747429
242,1646933680.7758179,-0.3352602313303018
243,1646933680.7771878,-0.33501022370067446
244,1646933680.7785578,-0.3348852198858608
245,1646933680.7799275,-0.33476021607104706
246,1646933680.7812977,-0.33451020844141977
247,1646933680.7829275,-0.3343852046266061
248,1646933680.7843022,-0.3343852046266061
249,1646933680.7856736,-0.3343852046266061
250,1646933680.7870457,-0.33451020844141977
251,1646933680.7884166,-0.3343852046266061
252,1646933680.789787,-0.3343852046266061
253,1646933680.7911594,-0.3343852046266061
254,1646933680.79253,-0.3343852046266061
255,1646933680.7939007,-0.33426020081179236
256,1646933680.7952714,-0.33426020081179236
257,1646933680.7966416,-0.334010193182165
258,1646933680.798012,-0.3337601855525376
259,1646933680.7993824,-0.33363518173772394
260,1646933680.800753,-0.33351017792291027
261,1646933680.802123,-0.33363518173772394
262,1646933680.8034933,-0.33351017792291027
263,1646933680.8048637,-0.3330101626636555
264,1646933680.8062344,-0.3327601550340281
265,1646933680.8076048,-0.33263515121921444
266,1646933680.8089747,-0.3323851435895871
267,1646933680.810345,-0.3321351359599597
268,1646933680.8117158,-0.3321351359599597
269,1646933680.8130867,-0.331635120700705
270,1646933680.8144586,-0.33138511307107765
271,1646933680.8158293,-0.3312601092562639
272,1646933680.817199,-0.33113510544145025
273,1646933680.8185723,-0.3310101016266366
274,1646933680.8199575,-0.33051008636738183
275,1646933680.8213317,-0.3302600787377544
276,1646933680.8227038,-0.3300100711081271
277,1646933680.8240771,-0.3297600634784997
278,1646933680.8254468,-0.32951005584887233
279,1646933680.826817,-0.32951005584887233
280,1646933680.8281872,-0.32901004058961764
281,1646933680.8295572,-0.32888503677480396
282,1646933680.830927,-0.32876003295999023
283,1646933680.8322968,-0.3285100253303629
284,1646933680.8336673,-0.3282600177007355
285,1646933680.835037,-0.32801001007110814
286,1646933680.8364072,-0.32801001007110814
287,1646933680.8377771,-0.32801001007110814
288,1646933680.8391476,-0.32788500625629446
289,1646933680.8405206,-0.32788500625629446
290,1646933680.8418903,-0.32788500625629446
291,1646933680.8432608,-0.32788500625629446
292,1646933680.844631,-0.32801001007110814
293,1646933680.846016,-0.32788500625629446
294,1646933680.847389,-0.32776000244148074
295,1646933680.8487728,-0.32763499862666706
296,1646933680.8501441,-0.327259987182226
297,1646933680.8515186,-0.3271349833674123
298,1646933680.8528914,-0.32688497573778497
299,1646933680.854274,-0.32650996429334395
300,1646933680.855646,-0.32650996429334395
301,1646933680.857017,-0.32613495284890287
302,1646933680.8583875,-0.3256349375896481
303,1646933680.8597581,-0.32525992614520705
304,1646933680.8611283,-0.32513492233039337
305,1646933680.8624995,-0.324884914700766
306,1646933680.8638697,-0.3246349070711386
307,1646933680.86524,-0.3243848994415113
308,1646933680.866611,-0.32413489181188393
309,1646933680.8679812,-0.32413489181188393
310,1646933680.8693528,-0.3238848841822566
311,1646933680.8707228,-0.3238848841822566
312,1646933680.8720927,-0.3236348765526292
313,1646933680.8734622,-0.3235098727378155
314,1646933680.8748329,-0.32338486892300183
315,1646933680.876203,-0.32338486892300183
316,1646933680.877573,-0.32338486892300183
317,1646933680.8789432,-0.3232598651081881
318,1646933680.8803134,-0.32313486129337443
319,1646933680.8816853,-0.32313486129337443
320,1646933680.8830562,-0.3232598651081881
321,1646933680.8844264,-0.3232598651081881
322,1646933680.885796,-0.3232598651081881
323,1646933680.8871667,-0.3232598651081881
324,1646933680.8885372,-0.32300985747856076
325,1646933680.889907,-0.32300985747856076
326,1646933680.891277,-0.3228848536637471
327,1646933680.8926473,-0.32275984984893336
328,1646933680.8940175,-0.3226348460341197
329,1646933680.8953874,-0.32238483840449234
330,1646933680.8967576,-0.3222598345896786
331,1646933680.898128,-0.32213483077486493
332,1646933680.899498,-0.3218848231452376
333,1646933680.9008682,-0.32175981933042386
334,1646933680.9022377,-0.32150981170079657
335,1646933680.903608,-0.3207597888119144
336,1646933680.90498,-0.32050978118228707
337,1646933680.90635,-0.32025977355265967
338,1646933680.9077199,-0.31975975829340497
339,1646933680.9090905,-0.31975975829340497
340,1646933680.9104607,-0.3192597430341502
341,1646933680.9118326,-0.3188847315897092
342,1646933680.913203,-0.31875972777489553
343,1646933680.9145877,-0.3182597125156408
344,1646933680.9159598,-0.31813470870082705
345,1646933680.91733,-0.3180097048860134
346,1646933680.9187,-0.3176346934415723
347,1646933680.9200704,-0.31738468581194496
348,1646933680.9214413,-0.3172596819971313
349,1646933680.922813,-0.31713467818231755
350,1646933680.9241834,-0.3170096743675039
351,1646933680.925553,-0.3170096743675039
352,1646933680.926923,-0.3168846705526902
353,1646933680.9282935,-0.31675966673787653
354,1646933680.9296634,-0.3166346629230628
355,1646933680.9310346,-0.3166346629230628
356,1646933680.932405,-0.3163846552934355
357,1646933680.9337761,-0.31625965147862184
358,1646933680.9351456,-0.3161346476638081
359,1646933680.9365156,-0.31600964384899444
360,1646933680.9378853,-0.3157596362193671
361,1646933680.9392555,-0.31563463240455336
362,1646933680.9406261,-0.3155096285897397
363,1646933680.9419963,-0.3155096285897397
364,1646933680.9433668,-0.3155096285897397
365,1646933680.9447365,-0.315384624774926
366,1646933680.9461067,-0.31525962096011234
367,1646933680.947478,-0.3151346171452986
368,1646933680.9488606,-0.31500961333048494
369,1646933680.950288,-0.31500961333048494
370,1646933680.9517186,-0.31500961333048494
371,1646933680.953144,-0.31488460951567127
372,1646933680.9545696,-0.3147596057008576
373,1646933680.9559944,-0.3145095980712302
374,1646933680.9574192,-0.3143845942564165
375,1646933680.9588437,-0.3143845942564165
376,1646933680.9602678,-0.31425959044160284
377,1646933680.9616952,-0.31388457899716177
378,1646933680.963121,-0.31375957518234815
379,1646933680.9645457,-0.31375957518234815
380,1646933680.9659703,-0.31350956755272075
381,1646933680.9673965,-0.31350956755272075
382,1646933680.9688215,-0.3133845637379071
383,1646933680.970246,-0.3133845637379071
384,1646933680.9716747,-0.3132595599230934
385,1646933680.9731,-0.31313455610827967
386,1646933680.9745235,-0.31313455610827967
387,1646933680.9759488,-0.3132595599230934
388,1646933680.9773734,-0.31313455610827967
389,1646933680.9787986,-0.31313455610827967
390,1646933680.980223,-0.3132595599230934
391,1646933680.9816506,-0.31313455610827967
392,1646933680.983077,-0.31313455610827967
393,1646933680.984502,-0.313009552293466
394,1646933680.985944,-0.3128845484786523
395,1646933680.9873705,-0.3126345408490249
396,1646933680.9888222,-0.3123845332193976
397,1646933680.990249,-0.3122595294045839
398,1646933680.9916785,-0.3120095217749565
399,1646933680.9931068,-0.31150950651570175
400,1646933680.9945323,-0.3113845027008881
401,1646933680.995957,-0.31113449507126073
402,1646933680.9973822,-0.31100949125644706
403,1646933680.9988062,-0.3105094759971923
404,1646933681.0002325,-0.31025946836756496
405,1646933681.0016603,-0.31013446455275123
406,1646933681.0030885,-0.3097594531083102
407,1646933681.004515,-0.3095094454786828
408,1646933681.00594,-0.30925943784905546
409,1646933681.007366,-0.30913443403424173
410,1646933681.008792,-0.30913443403424173
411,1646933681.0102172,-0.3088844264046144
412,1646933681.011647,-0.308634418774987
413,1646933681.013072,-0.308634418774987
414,1646933681.0144973,-0.3083844111453597
415,1646933681.0159233,-0.3081344035157323
416,1646933681.0173488,-0.30775939207129127
417,1646933681.0187757,-0.30775939207129127
418,1646933681.0202014,-0.30763438825647754
419,1646933681.021629,-0.3073843806268502
420,1646933681.0230553,-0.3071343729972228
421,1646933681.02448,-0.30688436536759545
422,1646933681.025905,-0.3067593615527818
423,1646933681.0273302,-0.3067593615527818
424,1646933681.0287554,-0.30663435773796804
425,1646933681.03018,-0.30650935392315437
426,1646933681.0316076,-0.30650935392315437
427,1646933681.033033,-0.306259346293527
428,1646933681.0344574,-0.306259346293527
429,1646933681.0358825,-0.3061343424787133
430,1646933681.0373082,-0.3060093386638997
431,1646933681.0387347,-0.30575933103427233
432,1646933681.04016,-0.3056343272194586
433,1646933681.0415878,-0.30538431958983125
434,1646933681.0430129,-0.3048843043305765
435,1646933681.0444372,-0.30450929288613543
436,1646933681.0458627,-0.30438428907132176
437,1646933681.047385,-0.3040092776268807
438,1646933681.048828,-0.30350926236762593
439,1646933681.0503805,-0.3033842585528123
440,1646933681.051854,-0.30313425092318497
441,1646933681.0533211,-0.30288424329355756
442,1646933681.0547872,-0.3025092318491165
443,1646933681.0562527,-0.30225922421948914
444,1646933681.0577183,-0.30213422040467547
445,1646933681.0591838,-0.30188421277504807
446,1646933681.0606492,-0.30188421277504807
447,1646933681.0621147,-0.3017592089602344
448,1646933681.0635803,-0.3017592089602344
449,1646933681.0650463,-0.301509201330607
450,1646933681.0665107,-0.301509201330607
451,1646933681.0679755,-0.30125919370097964
452,1646933681.0694406,-0.30113418988616597
453,1646933681.070904,-0.30075917844172495
454,1646933681.0723684,-0.30050917081209755
455,1646933681.073833,-0.30050917081209755
456,1646933681.075299,-0.3002591631824702
457,1646933681.0767632,-0.30013415936765653
458,1646933681.0782285,-0.30013415936765653
459,1646933681.0796936,-0.30013415936765653
460,1646933681.0811577,-0.2998841517380291
461,1646933681.0826225,-0.2998841517380291
462,1646933681.0840874,-0.29975914792321545
463,1646933681.0855544,-0.2998841517380291
464,1646933681.087021,-0.2996341441084018
