,Time (s),Signal (V)
0,1643841975.1901877,-0.013375408185064242
1,1643841975.197685,-0.013500411999877926
2,1643841975.2003725,-0.013375408185064242
3,1643841975.2030385,-0.013625415814691611
4,1643841975.2057085,-0.013500411999877926
5,1643841975.208371,-0.013250404370250556
6,1643841975.2110333,-0.013250404370250556
7,1643841975.213695,-0.013500411999877926
8,1643841975.2163703,-0.013375408185064242
9,1643841975.2190351,-0.013500411999877926
10,1643841975.2216983,-0.013500411999877926
11,1643841975.2243633,-0.013500411999877926
12,1643841975.2270238,-0.013625415814691611
13,1643841975.2296872,-0.013500411999877926
14,1643841975.2323515,-0.013375408185064242
15,1643841975.2350135,-0.013500411999877926
16,1643841975.2376757,-0.013625415814691611
17,1643841975.2403412,-0.013625415814691611
18,1643841975.2430046,-0.013375408185064242
19,1643841975.2456682,-0.013375408185064242
20,1643841975.248346,-0.013500411999877926
21,1643841975.251009,-0.013625415814691611
22,1643841975.2536714,-0.013625415814691611
23,1643841975.2563362,-0.013625415814691611
24,1643841975.258999,-0.013500411999877926
25,1643841975.2616618,-0.013500411999877926
26,1643841975.2643244,-0.013500411999877926
27,1643841975.2669885,-0.013625415814691611
28,1643841975.2696514,-0.013625415814691611
29,1643841975.2723138,-0.013500411999877926
30,1643841975.275475,-0.013375408185064242
31,1643841975.2782443,-0.013500411999877926
32,1643841975.2810054,-0.013375408185064242
33,1643841975.2837493,-0.013375408185064242
34,1643841975.2864933,-0.013375408185064242
35,1643841975.2908165,-0.013375408185064242
36,1643841975.2936113,-0.013375408185064242
37,1643841975.2964027,-0.013500411999877926
38,1643841975.299162,-0.013500411999877926
39,1643841975.301877,-0.013625415814691611
40,1643841975.304541,-0.013625415814691611
41,1643841975.3072035,-0.013750419629505295
42,1643841975.309867,-0.013625415814691611
43,1643841975.3125277,-0.013500411999877926
44,1643841975.3151875,-0.013375408185064242
45,1643841975.3178475,-0.013625415814691611
46,1643841975.3205097,-0.013750419629505295
47,1643841975.32317,-0.013750419629505295
48,1643841975.3258297,-0.013750419629505295
49,1643841975.3284929,-0.013625415814691611
50,1643841975.3311524,-0.013625415814691611
51,1643841975.3338113,-0.013625415814691611
52,1643841975.3364708,-0.013750419629505295
53,1643841975.3391368,-0.013625415814691611
54,1643841975.3417954,-0.013625415814691611
55,1643841975.344454,-0.013625415814691611
56,1643841975.3471134,-0.013625415814691611
57,1643841975.3497748,-0.013625415814691611
58,1643841975.3524349,-0.013625415814691611
59,1643841975.3550937,-0.013500411999877926
60,1643841975.3577528,-0.013625415814691611
61,1643841975.3604138,-0.013500411999877926
62,1643841975.3630717,-0.013375408185064242
63,1643841975.365709,-0.013500411999877926
64,1643841975.3683686,-0.013500411999877926
65,1643841975.3710268,-0.013625415814691611
66,1643841975.3736842,-0.013625415814691611
67,1643841975.3763418,-0.013625415814691611
68,1643841975.3790016,-0.013625415814691611
69,1643841975.3816597,-0.013625415814691611
70,1643841975.384317,-0.013625415814691611
71,1643841975.386974,-0.013625415814691611
72,1643841975.3896327,-0.013625415814691611
73,1643841975.3922918,-0.013750419629505295
74,1643841975.3949494,-0.013625415814691611
75,1643841975.3976092,-0.013625415814691611
76,1643841975.4002717,-0.013625415814691611
77,1643841975.402932,-0.013625415814691611
78,1643841975.4055922,-0.013500411999877926
79,1643841975.4082685,-0.013500411999877926
80,1643841975.4109461,-0.013500411999877926
81,1643841975.4136074,-0.013500411999877926
82,1643841975.4162703,-0.013500411999877926
83,1643841975.418932,-0.013500411999877926
84,1643841975.4215925,-0.013625415814691611
85,1643841975.4242532,-0.013625415814691611
86,1643841975.426916,-0.013625415814691611
87,1643841975.4295762,-0.013500411999877926
88,1643841975.432236,-0.013625415814691611
89,1643841975.4348972,-0.013625415814691611
90,1643841975.4375603,-0.013625415814691611
91,1643841975.4402208,-0.013625415814691611
92,1643841975.4428816,-0.013625415814691611
93,1643841975.445542,-0.013500411999877926
94,1643841975.4482043,-0.013500411999877926
95,1643841975.4508648,-0.013500411999877926
96,1643841975.4535255,-0.013375408185064242
97,1643841975.4561875,-0.013375408185064242
98,1643841975.4588516,-0.013500411999877926
99,1643841975.4615128,-0.013500411999877926
100,1643841975.464173,-0.013375408185064242
101,1643841975.4668357,-0.013500411999877926
102,1643841975.4694963,-0.013625415814691611
103,1643841975.4721582,-0.013625415814691611
104,1643841975.4748192,-0.013625415814691611
105,1643841975.4774818,-0.013500411999877926
106,1643841975.4801433,-0.013500411999877926
107,1643841975.4828053,-0.013500411999877926
108,1643841975.4854655,-0.013500411999877926
109,1643841975.4881272,-0.013500411999877926
110,1643841975.490788,-0.013500411999877926
111,1643841975.4934487,-0.013625415814691611
112,1643841975.4961095,-0.013625415814691611
113,1643841975.4987705,-0.013500411999877926
114,1643841975.5014307,-0.013500411999877926
115,1643841975.5040915,-0.013500411999877926
116,1643841975.5067554,-0.013500411999877926
117,1643841975.5094175,-0.013375408185064242
118,1643841975.5120788,-0.013375408185064242
119,1643841975.5147405,-0.013375408185064242
120,1643841975.517403,-0.013500411999877926
121,1643841975.520065,-0.013500411999877926
122,1643841975.5227258,-0.013500411999877926
123,1643841975.5253866,-0.013375408185064242
124,1643841975.5280492,-0.013375408185064242
125,1643841975.53071,-0.013250404370250556
126,1643841975.533371,-0.013250404370250556
127,1643841975.5360363,-0.013250404370250556
128,1643841975.5386982,-0.013375408185064242
129,1643841975.54136,-0.013375408185064242
130,1643841975.544021,-0.013250404370250556
131,1643841975.5466826,-0.013375408185064242
132,1643841975.5493426,-0.013375408185064242
133,1643841975.5520034,-0.013375408185064242
134,1643841975.5546703,-0.013375408185064242
135,1643841975.5573497,-0.013375408185064242
136,1643841975.5600123,-0.013375408185064242
137,1643841975.5626748,-0.013250404370250556
138,1643841975.5653362,-0.013375408185064242
139,1643841975.5679991,-0.013250404370250556
140,1643841975.570661,-0.013375408185064242
141,1643841975.573323,-0.013500411999877926
142,1643841975.5759847,-0.013250404370250556
143,1643841975.578646,-0.013125400555436872
144,1643841975.5813074,-0.013125400555436872
145,1643841975.5839684,-0.013250404370250556
146,1643841975.5866315,-0.013375408185064242
147,1643841975.5892935,-0.013375408185064242
148,1643841975.591955,-0.013375408185064242
149,1643841975.5946193,-0.013375408185064242
150,1643841975.597283,-0.013375408185064242
151,1643841975.599944,-0.013375408185064242
152,1643841975.6026058,-0.013375408185064242
153,1643841975.6052673,-0.013375408185064242
154,1643841975.6079302,-0.013250404370250556
155,1643841975.610592,-0.013125400555436872
156,1643841975.6132534,-0.013125400555436872
157,1643841975.6159148,-0.013250404370250556
158,1643841975.618576,-0.013250404370250556
159,1643841975.6212373,-0.013125400555436872
160,1643841975.623898,-0.013250404370250556
161,1643841975.6265607,-0.013250404370250556
162,1643841975.629222,-0.013250404370250556
163,1643841975.631883,-0.013375408185064242
164,1643841975.6345444,-0.013375408185064242
165,1643841975.6372073,-0.013375408185064242
166,1643841975.6398685,-0.013375408185064242
167,1643841975.6425297,-0.013375408185064242
168,1643841975.6451907,-0.013375408185064242
169,1643841975.6478534,-0.013375408185064242
170,1643841975.6505141,-0.013375408185064242
171,1643841975.6531754,-0.013250404370250556
172,1643841975.6558368,-0.013250404370250556
173,1643841975.6584978,-0.013250404370250556
174,1643841975.661162,-0.013125400555436872
175,1643841975.663824,-0.013000396740623189
176,1643841975.6664872,-0.013250404370250556
177,1643841975.6691484,-0.013375408185064242
178,1643841975.6718097,-0.013375408185064242
179,1643841975.6744711,-0.013375408185064242
180,1643841975.6771345,-0.013375408185064242
181,1643841975.6798074,-0.013250404370250556
182,1643841975.6824694,-0.013250404370250556
183,1643841975.685131,-0.013250404370250556
184,1643841975.687794,-0.013500411999877926
185,1643841975.6904528,-0.013500411999877926
186,1643841975.693111,-0.013375408185064242
187,1643841975.6957717,-0.013375408185064242
188,1643841975.6984348,-0.013375408185064242
189,1643841975.7010963,-0.013375408185064242
190,1643841975.703757,-0.013375408185064242
191,1643841975.706419,-0.013250404370250556
192,1643841975.709079,-0.013375408185064242
193,1643841975.7117393,-0.013375408185064242
194,1643841975.7143996,-0.013375408185064242
195,1643841975.7170615,-0.013375408185064242
196,1643841975.7197218,-0.013625415814691611
197,1643841975.722454,-0.013625415814691611
198,1643841975.7251294,-0.013500411999877926
199,1643841975.727851,-0.013500411999877926
200,1643841975.7305663,-0.013375408185064242
201,1643841975.7332816,-0.013375408185064242
202,1643841975.7359982,-0.013500411999877926
203,1643841975.7387135,-0.013500411999877926
204,1643841975.7414293,-0.013375408185064242
205,1643841975.7441437,-0.013375408185064242
206,1643841975.7468607,-0.013250404370250556
207,1643841975.7495754,-0.013250404370250556
208,1643841975.7522895,-0.013250404370250556
209,1643841975.7550035,-0.013375408185064242
210,1643841975.75772,-0.013250404370250556
211,1643841975.7604342,-0.013250404370250556
212,1643841975.7631474,-0.013250404370250556
213,1643841975.765863,-0.013250404370250556
214,1643841975.7685769,-0.013250404370250556
215,1643841975.7712903,-0.013500411999877926
216,1643841975.7740037,-0.013375408185064242
217,1643841975.7767205,-0.013250404370250556
218,1643841975.7794352,-0.013250404370250556
219,1643841975.782149,-0.013250404370250556
220,1643841975.7848632,-0.013375408185064242
221,1643841975.7875807,-0.013375408185064242
222,1643841975.790295,-0.013250404370250556
223,1643841975.793009,-0.013250404370250556
224,1643841975.7957237,-0.013250404370250556
225,1643841975.7984374,-0.013375408185064242
226,1643841975.8011513,-0.013375408185064242
227,1643841975.8038654,-0.013375408185064242
228,1643841975.8065825,-0.013375408185064242
229,1643841975.8092961,-0.013375408185064242
230,1643841975.8120093,-0.013500411999877926
231,1643841975.8147225,-0.013375408185064242
232,1643841975.8174396,-0.013500411999877926
233,1643841975.8201532,-0.013625415814691611
234,1643841975.8229532,-0.013500411999877926
235,1643841975.8257236,-0.013375408185064242
236,1643841975.8285115,-0.013375408185064242
237,1643841975.8312945,-0.013500411999877926
238,1643841975.8340774,-0.013500411999877926
239,1643841975.8369129,-0.013625415814691611
240,1643841975.8396952,-0.013500411999877926
241,1643841975.8424733,-0.013500411999877926
242,1643841975.845248,-0.013500411999877926
243,1643841975.8480272,-0.013500411999877926
244,1643841975.8508162,-0.013500411999877926
245,1643841975.8536003,-0.013500411999877926
246,1643841975.8563871,-0.013500411999877926
247,1643841975.8591723,-0.013500411999877926
248,1643841975.8619554,-0.013375408185064242
249,1643841975.8647373,-0.013375408185064242
250,1643841975.867525,-0.013500411999877926
251,1643841975.8703084,-0.013625415814691611
252,1643841975.8730905,-0.013375408185064242
253,1643841975.875873,-0.013375408185064242
254,1643841975.8786552,-0.013375408185064242
255,1643841975.8814375,-0.013125400555436872
256,1643841975.8842201,-0.013250404370250556
257,1643841975.8870065,-0.013375408185064242
258,1643841975.8897893,-0.013375408185064242
259,1643841975.8925729,-0.013375408185064242
260,1643841975.895355,-0.013250404370250556
261,1643841975.8981426,-0.013250404370250556
262,1643841975.9009528,-0.013250404370250556
263,1643841975.9037359,-0.013250404370250556
264,1643841975.906518,-0.013125400555436872
265,1643841975.9093013,-0.013125400555436872
266,1643841975.9120834,-0.013250404370250556
267,1643841975.914866,-0.013250404370250556
268,1643841975.917653,-0.013250404370250556
269,1643841975.920437,-0.013250404370250556
270,1643841975.9233308,-0.013250404370250556
271,1643841975.9261239,-0.013250404370250556
272,1643841975.9288824,-0.013250404370250556
273,1643841975.931637,-0.013125400555436872
274,1643841975.934391,-0.013375408185064242
275,1643841975.9371483,-0.013375408185064242
276,1643841975.9399042,-0.013375408185064242
277,1643841975.9426575,-0.013375408185064242
278,1643841975.9454114,-0.013250404370250556
279,1643841975.9481673,-0.013250404370250556
280,1643841975.9509218,-0.013375408185064242
281,1643841975.953674,-0.013250404370250556
282,1643841975.956453,-0.013375408185064242
283,1643841975.9592087,-0.013375408185064242
284,1643841975.9619653,-0.013500411999877926
285,1643841975.964718,-0.013375408185064242
286,1643841975.9674737,-0.013500411999877926
287,1643841975.9702268,-0.013500411999877926
288,1643841975.9729803,-0.013500411999877926
289,1643841975.975735,-0.013500411999877926
290,1643841975.978489,-0.013375408185064242
291,1643841975.981242,-0.013250404370250556
292,1643841975.9839952,-0.013375408185064242
293,1643841975.9867532,-0.013500411999877926
294,1643841975.989507,-0.013500411999877926
295,1643841975.9922605,-0.013500411999877926
296,1643841975.9950137,-0.013375408185064242
297,1643841975.997771,-0.013375408185064242
298,1643841976.0005248,-0.013375408185064242
299,1643841976.0032785,-0.013375408185064242
300,1643841976.0060337,-0.013375408185064242
301,1643841976.0087876,-0.013375408185064242
302,1643841976.0115442,-0.013375408185064242
303,1643841976.0142965,-0.013375408185064242
304,1643841976.0170555,-0.013375408185064242
305,1643841976.01981,-0.013375408185064242
306,1643841976.022564,-0.013375408185064242
307,1643841976.0253422,-0.013375408185064242
308,1643841976.0281067,-0.013375408185064242
309,1643841976.0308623,-0.013250404370250556
310,1643841976.0336177,-0.013375408185064242
311,1643841976.0363755,-0.013250404370250556
312,1643841976.0391316,-0.013375408185064242
313,1643841976.0418894,-0.013375408185064242
314,1643841976.0446434,-0.013375408185064242
315,1643841976.0474014,-0.013250404370250556
316,1643841976.0501559,-0.013375408185064242
317,1643841976.0529087,-0.013375408185064242
318,1643841976.0556624,-0.013375408185064242
319,1643841976.0584517,-0.013375408185064242
320,1643841976.0612068,-0.013375408185064242
321,1643841976.063961,-0.013375408185064242
322,1643841976.0667193,-0.013375408185064242
323,1643841976.069474,-0.013500411999877926
324,1643841976.0722282,-0.013375408185064242
325,1643841976.074982,-0.013375408185064242
326,1643841976.0777404,-0.013375408185064242
327,1643841976.0804949,-0.013250404370250556
328,1643841976.0832486,-0.013375408185064242
329,1643841976.0860043,-0.013375408185064242
330,1643841976.0887518,-0.013375408185064242
331,1643841976.0914989,-0.013500411999877926
332,1643841976.0942452,-0.013375408185064242
333,1643841976.096996,-0.013500411999877926
334,1643841976.0997546,-0.013500411999877926
335,1643841976.1025083,-0.013375408185064242
336,1643841976.1052616,-0.013500411999877926
337,1643841976.1080174,-0.013500411999877926
338,1643841976.110769,-0.013250404370250556
339,1643841976.113521,-0.013375408185064242
340,1643841976.116274,-0.013500411999877926
341,1643841976.1190264,-0.013375408185064242
342,1643841976.121778,-0.013375408185064242
343,1643841976.1245294,-0.013375408185064242
344,1643841976.1273088,-0.013375408185064242
345,1643841976.130063,-0.013250404370250556
346,1643841976.1328156,-0.013250404370250556
347,1643841976.1355681,-0.013250404370250556
348,1643841976.1383457,-0.013375408185064242
349,1643841976.1410983,-0.013375408185064242
350,1643841976.14385,-0.013250404370250556
351,1643841976.1466072,-0.013250404370250556
352,1643841976.149359,-0.013250404370250556
353,1643841976.1521103,-0.013250404370250556
354,1643841976.1548638,-0.013250404370250556
355,1643841976.15762,-0.013125400555436872
356,1643841976.1603723,-0.013125400555436872
357,1643841976.163124,-0.013125400555436872
358,1643841976.165877,-0.013125400555436872
359,1643841976.1686294,-0.013125400555436872
360,1643841976.1713817,-0.013250404370250556
361,1643841976.174133,-0.013250404370250556
362,1643841976.176889,-0.013125400555436872
363,1643841976.1796408,-0.013125400555436872
364,1643841976.1823928,-0.013250404370250556
365,1643841976.185146,-0.013250404370250556
366,1643841976.187902,-0.013250404370250556
367,1643841976.1906543,-0.013250404370250556
368,1643841976.1934054,-0.013250404370250556
369,1643841976.1961584,-0.013000396740623189
370,1643841976.1989121,-0.013125400555436872
371,1643841976.2016635,-0.013125400555436872
372,1643841976.2044141,-0.013250404370250556
373,1643841976.2071693,-0.013250404370250556
374,1643841976.2099214,-0.013125400555436872
375,1643841976.2126718,-0.013250404370250556
376,1643841976.2154236,-0.013125400555436872
377,1643841976.2181783,-0.013125400555436872
378,1643841976.2209322,-0.013250404370250556
379,1643841976.2236836,-0.013250404370250556
380,1643841976.226437,-0.013250404370250556
381,1643841976.2292116,-0.013125400555436872
382,1643841976.2319674,-0.013250404370250556
383,1643841976.2347426,-0.013250404370250556
384,1643841976.2375002,-0.013250404370250556
385,1643841976.2402527,-0.013250404370250556
386,1643841976.2430053,-0.013250404370250556
387,1643841976.245757,-0.013125400555436872
388,1643841976.2485096,-0.013250404370250556
389,1643841976.2512856,-0.013125400555436872
390,1643841976.254057,-0.013125400555436872
391,1643841976.2568135,-0.013125400555436872
392,1643841976.259565,-0.013125400555436872
393,1643841976.2623177,-0.013125400555436872
394,1643841976.2650688,-0.013125400555436872
395,1643841976.2678246,-0.013000396740623189
396,1643841976.2705772,-0.013125400555436872
397,1643841976.2733297,-0.013000396740623189
398,1643841976.2762928,-0.013125400555436872
399,1643841976.279069,-0.013000396740623189
400,1643841976.2818284,-0.013000396740623189
401,1643841976.2845836,-0.013125400555436872
402,1643841976.287343,-0.013000396740623189
403,1643841976.290099,-0.013125400555436872
404,1643841976.292852,-0.013125400555436872
405,1643841976.2956054,-0.013000396740623189
406,1643841976.2983649,-0.013000396740623189
407,1643841976.3011196,-0.013000396740623189
408,1643841976.3038738,-0.013000396740623189
409,1643841976.3066316,-0.013125400555436872
410,1643841976.3093865,-0.013000396740623189
411,1643841976.3121424,-0.012875392925809505
412,1643841976.3148954,-0.013000396740623189
413,1643841976.317652,-0.013000396740623189
414,1643841976.3204067,-0.013000396740623189
415,1643841976.3231595,-0.013000396740623189
416,1643841976.3259144,-0.013000396740623189
417,1643841976.3286614,-0.012875392925809505
418,1643841976.3314357,-0.01275038911099582
419,1643841976.3341875,-0.013000396740623189
420,1643841976.3369372,-0.012875392925809505
421,1643841976.33969,-0.013000396740623189
422,1643841976.3424356,-0.012875392925809505
423,1643841976.3451807,-0.012875392925809505
424,1643841976.347927,-0.012875392925809505
425,1643841976.3506753,-0.012875392925809505
426,1643841976.353421,-0.013000396740623189
427,1643841976.35617,-0.013000396740623189
428,1643841976.3589177,-0.013000396740623189
429,1643841976.3616638,-0.012875392925809505
430,1643841976.364409,-0.013000396740623189
431,1643841976.3671553,-0.012875392925809505
432,1643841976.3699024,-0.013000396740623189
433,1643841976.3726478,-0.012875392925809505
434,1643841976.3753915,-0.012875392925809505
435,1643841976.3781414,-0.01275038911099582
436,1643841976.380898,-0.012875392925809505
437,1643841976.3836522,-0.012875392925809505
438,1643841976.3864098,-0.012875392925809505
439,1643841976.3891633,-0.012875392925809505
440,1643841976.3919165,-0.012875392925809505
441,1643841976.3946695,-0.01275038911099582
442,1643841976.397427,-0.012875392925809505
443,1643841976.400181,-0.012875392925809505
444,1643841976.4029348,-0.012875392925809505
445,1643841976.4057117,-0.013000396740623189
446,1643841976.4084685,-0.012875392925809505
447,1643841976.4112234,-0.012875392925809505
448,1643841976.4139779,-0.012875392925809505
