,Time (s),Signal (V)
0,1646606956.668717,-0.04487636951811273
1,1646606956.6740055,-0.04500137333292642
2,1646606956.675649,-0.0451263771477401
3,1646606956.6774302,-0.0451263771477401
4,1646606956.679051,-0.0451263771477401
5,1646606956.6806629,-0.04525138096255379
6,1646606956.6822681,-0.045376384777367475
7,1646606956.6838727,-0.045376384777367475
8,1646606956.6854765,-0.045376384777367475
9,1646606956.6870794,-0.045501388592181155
10,1646606956.688684,-0.045501388592181155
11,1646606956.690286,-0.045376384777367475
12,1646606956.6918864,-0.045501388592181155
13,1646606956.6934884,-0.045501388592181155
14,1646606956.6950881,-0.045501388592181155
15,1646606956.6966891,-0.045376384777367475
16,1646606956.6982954,-0.045376384777367475
17,1646606956.699916,-0.04525138096255379
18,1646606956.7015278,-0.04525138096255379
19,1646606956.703138,-0.04525138096255379
20,1646606956.704749,-0.04525138096255379
21,1646606956.7063594,-0.0451263771477401
22,1646606956.7079737,-0.04525138096255379
23,1646606956.7095819,-0.04525138096255379
24,1646606956.711189,-0.04500137333292642
25,1646606956.7127972,-0.04500137333292642
26,1646606956.7144074,-0.04487636951811273
27,1646606956.7160141,-0.04500137333292642
28,1646606956.7176282,-0.04475136570329905
29,1646606956.7192366,-0.04475136570329905
30,1646606956.7208462,-0.044626361888485365
31,1646606956.7224529,-0.044626361888485365
32,1646606956.7240608,-0.04450135807367168
33,1646606956.725666,-0.04450135807367168
34,1646606956.7272768,-0.04450135807367168
35,1646606956.728883,-0.04450135807367168
36,1646606956.7304912,-0.04450135807367168
37,1646606956.7320974,-0.044376354258858
38,1646606956.733705,-0.044376354258858
39,1646606956.73531,-0.044376354258858
40,1646606956.7369158,-0.04425135044404431
41,1646606956.738526,-0.04450135807367168
42,1646606956.7401314,-0.044376354258858
43,1646606956.7417393,-0.044376354258858
44,1646606956.743346,-0.04450135807367168
45,1646606956.744954,-0.04450135807367168
46,1646606956.746561,-0.04450135807367168
47,1646606956.7481742,-0.044376354258858
48,1646606956.7497818,-0.04425135044404431
49,1646606956.751388,-0.044376354258858
50,1646606956.7529936,-0.044376354258858
51,1646606956.7546003,-0.04425135044404431
52,1646606956.756207,-0.04425135044404431
53,1646606956.7578182,-0.04425135044404431
54,1646606956.7594264,-0.04425135044404431
55,1646606956.7610335,-0.04412634662923062
56,1646606956.7626762,-0.04412634662923062
57,1646606956.7642872,-0.04400134281441694
58,1646606956.765897,-0.04400134281441694
59,1646606956.7675104,-0.04387633899960326
60,1646606956.7691193,-0.04387633899960326
61,1646606956.7707255,-0.043626331369975895
62,1646606956.7723317,-0.04375133518478958
63,1646606956.773937,-0.04350132755516221
64,1646606956.7755427,-0.04350132755516221
65,1646606956.7771485,-0.04337632374034853
66,1646606956.778786,-0.04337632374034853
67,1646606956.780392,-0.04325131992553484
68,1646606956.7819986,-0.04337632374034853
69,1646606956.783604,-0.04325131992553484
70,1646606956.7852101,-0.04325131992553484
71,1646606956.786816,-0.04325131992553484
72,1646606956.7884514,-0.04312631611072116
73,1646606956.790063,-0.04312631611072116
74,1646606956.7916968,-0.04300131229590747
75,1646606956.7933052,-0.04300131229590747
76,1646606956.7949126,-0.042751304666280104
77,1646606956.7965195,-0.042751304666280104
78,1646606956.798131,-0.04262630085146642
79,1646606956.7997394,-0.04237629322183905
80,1646606956.801346,-0.04225128940702536
81,1646606956.8029532,-0.04212628559221168
82,1646606956.8045597,-0.042001281777397995
83,1646606956.8061662,-0.04187627796258431
84,1646606956.8077755,-0.04150126651814326
85,1646606956.809381,-0.041251258888515885
86,1646606956.8109882,-0.041251258888515885
87,1646606956.8125944,-0.04087624744407483
88,1646606956.8142319,-0.04087624744407483
89,1646606956.8158405,-0.040376232184820095
90,1646606956.8174524,-0.04025122837000641
91,1646606956.819059,-0.04012622455519273
92,1646606956.8206663,-0.03975121311075167
93,1646606956.822273,-0.03975121311075167
94,1646606956.8238795,-0.039501205481124305
95,1646606956.825484,-0.039501205481124305
96,1646606956.8270907,-0.03937620166631062
97,1646606956.828734,-0.03937620166631062
98,1646606956.8303413,-0.03937620166631062
99,1646606956.8319488,-0.03925119785149693
100,1646606956.8335555,-0.03937620166631062
101,1646606956.8351648,-0.03937620166631062
102,1646606956.8367717,-0.03925119785149693
103,1646606956.838384,-0.03937620166631062
104,1646606956.8399904,-0.03937620166631062
105,1646606956.8415964,-0.03937620166631062
106,1646606956.843201,-0.039501205481124305
107,1646606956.8448095,-0.03937620166631062
108,1646606956.8464165,-0.03937620166631062
109,1646606956.8480277,-0.03937620166631062
110,1646606956.8496346,-0.03925119785149693
111,1646606956.8512402,-0.03937620166631062
112,1646606956.8528454,-0.03925119785149693
113,1646606956.8544514,-0.03912619403668325
114,1646606956.8560603,-0.03925119785149693
115,1646606956.85767,-0.03912619403668325
116,1646606956.8592792,-0.03887618640705588
117,1646606956.8608859,-0.038751182592242195
118,1646606956.862493,-0.03850117496261483
119,1646606956.8640983,-0.03837617114780114
120,1646606956.8657029,-0.037876155888546405
121,1646606956.8673134,-0.03750114444410535
122,1646606956.8689208,-0.03675112155522324
123,1646606956.870527,-0.03487606433301798
124,1646606956.8721328,-0.03337601855525376
125,1646606956.87374,-0.029250892666402174
126,1646606956.8753455,-0.026125797296060058
127,1646606956.876955,-0.022750694296090578
128,1646606956.8785665,-0.013375408185064242
129,1646606956.880175,-0.0072502212591937015
130,1646606956.8817816,0.0001250038148136845
131,1646606956.8833902,0.018500564592425304
132,1646606956.8849962,0.029000885036774806
133,1646606956.8866043,0.05100155644398328
134,1646606956.888216,0.06250190740684225
135,1646606956.8898215,0.07437726981414228
136,1646606956.8914278,0.09862800988799708
137,1646606956.8930342,0.11075337992492447
138,1646606956.8946412,0.1332540665913877
139,1646606956.8962479,0.1427543565172277
140,1646606956.8978589,0.15100460829493087
141,1646606956.8994644,0.16475502792443616
142,1646606956.9010704,0.17075521103549304
143,1646606956.902676,0.17613037507248147
144,1646606956.9042828,0.18475563829462568
145,1646606956.905889,0.1881307412945952
146,1646606956.9075022,0.1926308786278878
147,1646606956.9091084,0.19413092440565202
148,1646606956.910718,0.19488094729453412
149,1646606956.9123259,0.19563097018341624
150,1646606956.9139338,0.19563097018341624
151,1646606956.9155502,0.1951309549241615
152,1646606956.9171565,0.19475594347972044
153,1646606956.918795,0.1943809320352794
154,1646606956.9204009,0.19363090914639727
155,1646606956.9220066,0.19313089388714255
156,1646606956.9236143,0.1927558824427015
157,1646606956.9252193,0.19188085573900573
158,1646606956.926826,0.19163084810937836
159,1646606956.9284623,0.19075582140568256
160,1646606956.9300692,0.19038080996124152
161,1646606956.9316773,0.18988079470198677
162,1646606956.9332838,0.18938077944273204
163,1646606956.9348898,0.1888807641834773
164,1646606956.936497,0.18825574510940885
165,1646606956.9381065,0.18775572985015412
166,1646606956.939712,0.18750572222052675
167,1646606956.941319,0.187005706961272
168,1646606956.942924,0.18650569170201728
169,1646606956.9445312,0.1862556840723899
170,1646606956.9461374,0.18563066499832148
171,1646606956.947747,0.18525565355388043
172,1646606956.9493556,0.18488064210943939
173,1646606956.9509614,0.1845056306649983
174,1646606956.9525745,0.18425562303537096
175,1646606956.9542105,0.18375560777611621
176,1646606956.955821,0.18338059633167517
177,1646606956.9574325,0.18288058107242045
178,1646606956.9590409,0.18263057344279307
179,1646606956.960647,0.18250556962797937
180,1646606956.9622543,0.18200555436872462
181,1646606956.963861,0.1816305429242836
182,1646606956.9654682,0.18125553147984252
183,1646606956.9670737,0.18100552385021515
184,1646606956.9686832,0.18075551622058778
185,1646606956.9702897,0.18038050477614673
186,1646606956.9718957,0.18013049714651938
187,1646606956.9735038,0.179880489516892
188,1646606956.9751098,0.17950547807245093
189,1646606956.9767184,0.17938047425763726
190,1646606956.9783275,0.17925547044282356
191,1646606956.9799356,0.1790054628131962
192,1646606956.9815419,0.1790054628131962
193,1646606956.9831488,0.17875545518356883
194,1646606956.9847553,0.17875545518356883
195,1646606956.9863608,0.17850544755394146
196,1646606956.9879704,0.17850544755394146
197,1646606956.9895775,0.17825543992431409
198,1646606956.9911823,0.1781304361095004
199,1646606956.9927871,0.1780054322946867
200,1646606956.9943914,0.17788042847987304
201,1646606956.9959977,0.17775542466505934
202,1646606956.9976113,0.177505417035432
203,1646606956.999219,0.17738041322061832
204,1646606957.0008283,0.17713040559099094
205,1646606957.002435,0.17700540177617724
206,1646606957.0040421,0.1766303903317362
207,1646606957.0056481,0.1765053865169225
208,1646606957.0072618,0.17638038270210885
209,1646606957.00887,0.17613037507248147
210,1646606957.0104759,0.17600537125766777
211,1646606957.012082,0.17575536362804042
212,1646606957.0136871,0.17563035981322672
213,1646606957.0152917,0.17550535599841305
214,1646606957.016899,0.17538035218359935
215,1646606957.0185356,0.17525534836878567
216,1646606957.020143,0.17500534073915833
217,1646606957.0217514,0.17488033692434463
218,1646606957.0233588,0.17475533310953095
219,1646606957.0249648,0.17438032166508988
220,1646606957.0265706,0.1742553178502762
221,1646606957.0281816,0.17388030640583513
222,1646606957.0297875,0.17375530259102148
223,1646606957.031393,0.17375530259102148
224,1646606957.0329976,0.1733802911465804
225,1646606957.034603,0.17313028351695303
226,1646606957.0362089,0.17300527970213936
227,1646606957.0378187,0.17263026825769828
228,1646606957.039424,0.17263026825769828
229,1646606957.0410297,0.17225525681325726
230,1646606957.0426354,0.1720052491836299
231,1646606957.044242,0.17213025299844356
232,1646606957.0458493,0.1716302377391888
233,1646606957.0474596,0.1716302377391888
234,1646606957.0490735,0.17138023010956144
235,1646606957.0506806,0.17138023010956144
236,1646606957.0522885,0.17125522629474776
237,1646606957.053895,0.17100521866512042
238,1646606957.0555,0.17100521866512042
239,1646606957.057106,0.17088021485030672
240,1646606957.0587447,0.17063020722067934
241,1646606957.0603518,0.17063020722067934
242,1646606957.0619574,0.1702551957762383
243,1646606957.063563,0.1701301919614246
244,1646606957.0651681,0.1701301919614246
245,1646606957.0667734,0.17000518814661092
246,1646606957.0683851,0.16975518051698357
247,1646606957.0704618,0.16975518051698357
248,1646606957.0720778,0.16963017670216987
249,1646606957.073688,0.1693801690725425
250,1646606957.0752976,0.1693801690725425
251,1646606957.0769053,0.16913016144291512
252,1646606957.078517,0.16900515762810145
253,1646606957.0801244,0.16888015381328775
254,1646606957.0817316,0.16875514999847407
255,1646606957.0833392,0.1686301461836604
256,1646606957.0849457,0.16875514999847407
257,1646606957.0865529,0.16838013855403303
258,1646606957.0881646,0.16838013855403303
259,1646606957.0897708,0.16825513473921935
260,1646606957.0913782,0.16813013092440565
261,1646606957.092983,0.16813013092440565
262,1646606957.0945895,0.16788012329477828
263,1646606957.0961967,0.1677551194799646
264,1646606957.0978057,0.1676301156651509
265,1646606957.0994148,0.16738010803552353
266,1646606957.1010213,0.16725510422070988
267,1646606957.102627,0.1670050965910825
268,1646606957.1042345,0.1670050965910825
269,1646606957.1058407,0.16675508896145513
270,1646606957.1074524,0.16638007751701406
271,1646606957.1090593,0.16638007751701406
272,1646606957.1106656,0.16600506607257304
273,1646606957.112272,0.16588006225775934
274,1646606957.113879,0.16588006225775934
275,1646606957.115486,0.16563005462813196
276,1646606957.1170926,0.16563005462813196
277,1646606957.118739,0.1653800469985046
278,1646606957.1203496,0.16525504318369091
279,1646606957.121956,0.1651300393688772
280,1646606957.1235645,0.16475502792443616
281,1646606957.1251707,0.1646300241096225
282,1646606957.126777,0.16450502029480882
283,1646606957.128384,0.16400500503555407
284,1646606957.1299925,0.16400500503555407
285,1646606957.1315975,0.1637549974059267
286,1646606957.1332037,0.16350498977629932
287,1646606957.13481,0.16350498977629932
288,1646606957.1364164,0.16312997833185827
289,1646606957.1380262,0.1630049745170446
290,1646606957.1396337,0.16275496688741722
291,1646606957.141242,0.16250495925778985
292,1646606957.1428487,0.16250495925778985
293,1646606957.1444855,0.16225495162816247
294,1646606957.1460927,0.16225495162816247
295,1646606957.1477036,0.16212994781334877
296,1646606957.1493099,0.16200494399853513
297,1646606957.1509163,0.16187994018372143
298,1646606957.152524,0.16162993255409405
299,1646606957.1541297,0.16162993255409405
300,1646606957.1557362,0.16162993255409405
301,1646606957.1573465,0.16150492873928038
302,1646606957.158954,0.16137992492446668
303,1646606957.1605604,0.16137992492446668
304,1646606957.1621668,0.161254921109653
305,1646606957.1637726,0.16137992492446668
306,1646606957.1653814,0.16100491348002563
307,1646606957.1669874,0.16100491348002563
308,1646606957.1685994,0.16087990966521193
309,1646606957.1702046,0.16087990966521193
310,1646606957.1718144,0.16062990203558458
311,1646606957.1734214,0.1603798944059572
312,1646606957.1750276,0.1603798944059572
313,1646606957.1766336,0.16012988677632983
314,1646606957.1782446,0.16012988677632983
315,1646606957.1798506,0.16000488296151616
316,1646606957.1814568,0.16000488296151616
317,1646606957.1830645,0.15975487533188878
318,1646606957.1846714,0.15987987914670249
319,1646606957.1862776,0.15975487533188878
320,1646606957.1878893,0.1596298715170751
321,1646606957.189498,0.1596298715170751
322,1646606957.1911042,0.15950486770226144
323,1646606957.192711,0.15950486770226144
324,1646606957.194318,0.15925486007263406
325,1646606957.1959267,0.1591298562578204
326,1646606957.1975367,0.1590048524430067
327,1646606957.199144,0.15875484481337931
328,1646606957.2007506,0.15875484481337931
329,1646606957.2023566,0.15875484481337931
330,1646606957.203962,0.15837983336893827
331,1646606957.2055686,0.15825482955412457
332,1646606957.2072027,0.15787981810968355
333,1646606957.2088113,0.15775481429486984
334,1646606957.210418,0.15762981048005617
335,1646606957.2120235,0.15762981048005617
336,1646606957.2136323,0.1573798028504288
337,1646606957.2152388,0.15712979522080142
338,1646606957.2168467,0.15712979522080142
339,1646606957.2184825,0.15712979522080142
340,1646606957.220091,0.15687978759117407
341,1646606957.2216973,0.1566297799615467
342,1646606957.2233028,0.1566297799615467
343,1646606957.2249389,0.15637977233191933
344,1646606957.2265472,0.15625476851710562
345,1646606957.2281578,0.15612976470229195
346,1646606957.2297654,0.15587975707266458
347,1646606957.2313704,0.15587975707266458
348,1646606957.232824,0.1556297494430372
349,1646606957.2341943,0.1556297494430372
350,1646606957.2355647,0.1556297494430372
351,1646606957.2369351,0.15537974181340986
352,1646606957.238307,0.15525473799859615
353,1646606957.239678,0.15500473036896878
354,1646606957.2410479,0.1548797265541551
355,1646606957.2424188,0.1548797265541551
356,1646606957.2437892,0.15462971892452773
357,1646606957.2451596,0.15462971892452773
358,1646606957.24653,0.15462971892452773
359,1646606957.2479024,0.15450471510971403
360,1646606957.2492726,0.15437971129490036
361,1646606957.2506433,0.15437971129490036
362,1646606957.252014,0.15425470748008668
363,1646606957.253385,0.154129703665273
364,1646606957.2547555,0.154129703665273
365,1646606957.256126,0.154129703665273
366,1646606957.2574987,0.1540046998504593
367,1646606957.258869,0.154129703665273
368,1646606957.260239,0.1540046998504593
369,1646606957.2616096,0.1540046998504593
370,1646606957.2629795,0.1540046998504593
371,1646606957.26435,0.1540046998504593
372,1646606957.2657208,0.1540046998504593
373,1646606957.2670913,0.15375469222083193
374,1646606957.268463,0.15387969603564564
375,1646606957.2698336,0.15375469222083193
376,1646606957.2712047,0.15362968840601826
377,1646606957.2725754,0.15362968840601826
378,1646606957.2739458,0.15350468459120456
379,1646606957.2753158,0.1533796807763909
380,1646606957.2766855,0.15350468459120456
381,1646606957.2780578,0.15325467696157719
382,1646606957.279428,0.15325467696157719
383,1646606957.2807984,0.15325467696157719
384,1646606957.2821686,0.15300466933194984
385,1646606957.2835383,0.1531296731467635
386,1646606957.2849085,0.15275466170232246
387,1646606957.2862785,0.15287966551713617
388,1646606957.2876503,0.15287966551713617
389,1646606957.2890203,0.15275466170232246
390,1646606957.2903905,0.1526296578875088
391,1646606957.2917607,0.1526296578875088
392,1646606957.2931314,0.15237965025788142
393,1646606957.2945008,0.1525046540726951
394,1646606957.2958975,0.1525046540726951
395,1646606957.2972708,0.15212964262825404
396,1646606957.298642,0.15225464644306771
397,1646606957.3000126,0.15200463881344034
398,1646606957.3013833,0.15200463881344034
399,1646606957.3027534,0.15175463118381297
400,1646606957.3041244,0.15162962736899932
401,1646606957.3054943,0.15150462355418562
402,1646606957.3068652,0.15150462355418562
403,1646606957.3082373,0.15125461592455824
404,1646606957.3096085,0.15112961210974457
405,1646606957.3109791,0.1508796044801172
406,1646606957.3123505,0.1508796044801172
407,1646606957.3137212,0.1507546006653035
408,1646606957.3150911,0.15062959685048982
409,1646606957.3164613,0.15050459303567612
410,1646606957.3178334,0.15037958922086248
411,1646606957.3192039,0.15037958922086248
412,1646606957.3205752,0.1501295815912351
413,1646606957.321946,0.1500045777764214
414,1646606957.3233166,0.14987957396160773
415,1646606957.3246877,0.14975457014679402
416,1646606957.326058,0.14962956633198035
417,1646606957.3274302,0.14950456251716665
418,1646606957.3288014,0.14937955870235298
419,1646606957.3301713,0.14950456251716665
420,1646606957.331542,0.14925455488753928
421,1646606957.3329127,0.1491295510727256
422,1646606957.3342826,0.1491295510727256
423,1646606957.335653,0.1491295510727256
424,1646606957.3370237,0.1491295510727256
425,1646606957.3384085,0.14887954344309826
426,1646606957.3397806,0.14875453962828455
427,1646606957.3411512,0.14862953581347088
428,1646606957.3425221,0.14875453962828455
429,1646606957.3438926,0.14862953581347088
430,1646606957.345263,0.14862953581347088
431,1646606957.3466332,0.14850453199865718
432,1646606957.348005,0.14850453199865718
433,1646606957.3493755,0.14850453199865718
434,1646606957.350746,0.1483795281838435
435,1646606957.3521159,0.1483795281838435
436,1646606957.353486,0.14850453199865718
437,1646606957.3548567,0.1483795281838435
438,1646606957.3562272,0.14850453199865718
439,1646606957.357599,0.1483795281838435
440,1646606957.3589694,0.1483795281838435
441,1646606957.3603399,0.1482545243690298
442,1646606957.3617103,0.1482545243690298
443,1646606957.363081,0.1483795281838435
444,1646606957.364452,0.1483795281838435
445,1646606957.3658223,0.1483795281838435
446,1646606957.3671942,0.1482545243690298
447,1646606957.3685648,0.1482545243690298
448,1646606957.369935,0.14812952055421613
449,1646606957.3713052,0.14800451673940243
450,1646606957.372676,0.14800451673940243
451,1646606957.3740463,0.14787951292458876
452,1646606957.3754165,0.14787951292458876
453,1646606957.376787,0.14775450910977508
454,1646606957.3781595,0.1476295052949614
455,1646606957.3795302,0.1475045014801477
456,1646606957.3809004,0.1475045014801477
457,1646606957.3822708,0.14737949766533404
458,1646606957.3836412,0.14725449385052033
459,1646606957.3850107,0.14725449385052033
460,1646606957.3863811,0.14712949003570666
461,1646606957.3877525,0.14700448622089296
462,1646606957.3891234,0.1468794824060793
463,1646606957.3904943,0.14700448622089296
464,1646606957.3918648,0.1466294747764519
465,1646606957.3932354,0.1466294747764519
466,1646606957.3946054,0.1466294747764519
467,1646606957.3959763,0.1465044709616382
468,1646606957.3973484,0.14637946714682457
