,Time (s),Signal (V)
0,1643843405.6869097,0.0008750267036957915
1,1643843405.6945755,0.001000030518509476
2,1643843405.6973066,0.001000030518509476
3,1643843405.7000203,0.001000030518509476
4,1643843405.7027287,0.001000030518509476
5,1643843405.705437,0.001000030518509476
6,1643843405.7081437,0.0008750267036957915
7,1643843405.710852,0.001000030518509476
8,1643843405.713575,0.001000030518509476
9,1643843405.7163217,0.0011250343333231605
10,1643843405.7190342,0.0011250343333231605
11,1643843405.7217433,0.001000030518509476
12,1643843405.7244523,0.001000030518509476
13,1643843405.727162,0.0008750267036957915
14,1643843405.7298691,0.001000030518509476
15,1643843405.7325766,0.001000030518509476
16,1643843405.735283,0.0008750267036957915
17,1643843405.7379923,0.001000030518509476
18,1643843405.7406993,0.001000030518509476
19,1643843405.7434068,0.001000030518509476
20,1643843405.7461138,0.001000030518509476
21,1643843405.748823,0.001000030518509476
22,1643843405.7515297,0.001000030518509476
23,1643843405.754237,0.001000030518509476
24,1643843405.756947,0.001000030518509476
25,1643843405.7596543,0.0011250343333231605
26,1643843405.762362,0.0011250343333231605
27,1643843405.765069,0.0011250343333231605
28,1643843405.7677772,0.0011250343333231605
29,1643843405.770484,0.0011250343333231605
30,1643843405.773191,0.0011250343333231605
31,1643843405.7758977,0.001000030518509476
32,1643843405.7786064,0.0011250343333231605
33,1643843405.7813127,0.0011250343333231605
34,1643843405.7840195,0.0011250343333231605
35,1643843405.786728,0.0011250343333231605
36,1643843405.7894354,0.0011250343333231605
37,1643843405.792142,0.0011250343333231605
38,1643843405.794848,0.001000030518509476
39,1643843405.7975557,0.0011250343333231605
40,1643843405.8002622,0.0011250343333231605
41,1643843405.8029687,0.0011250343333231605
42,1643843405.805675,0.001000030518509476
43,1643843405.808383,0.001000030518509476
44,1643843405.8110895,0.0011250343333231605
45,1643843405.8137956,0.0011250343333231605
46,1643843405.8165035,0.0011250343333231605
47,1643843405.8192105,0.0011250343333231605
48,1643843405.8219175,0.001000030518509476
49,1643843405.8246243,0.0008750267036957915
50,1643843405.8273325,0.001000030518509476
51,1643843405.830039,0.001000030518509476
52,1643843405.8327458,0.0011250343333231605
53,1643843405.835452,0.001000030518509476
54,1643843405.838161,0.0011250343333231605
55,1643843405.8408675,0.001000030518509476
56,1643843405.8435738,0.0008750267036957915
57,1643843405.8462818,0.0008750267036957915
58,1643843405.8489885,0.001000030518509476
59,1643843405.8516955,0.0008750267036957915
60,1643843405.8544023,0.0008750267036957915
61,1643843405.8571107,0.0007500228888821071
62,1643843405.8598173,0.0008750267036957915
63,1643843405.8625243,0.0008750267036957915
64,1643843405.8652308,0.001000030518509476
65,1643843405.8679392,0.0008750267036957915
66,1643843405.8706458,0.001000030518509476
67,1643843405.8733532,0.0008750267036957915
68,1643843405.876059,0.0008750267036957915
69,1643843405.8787673,0.0008750267036957915
70,1643843405.8814738,0.001000030518509476
71,1643843405.8841803,0.0011250343333231605
72,1643843405.8868897,0.0011250343333231605
73,1643843405.8895981,0.0011250343333231605
74,1643843405.8923054,0.0011250343333231605
75,1643843405.8950124,0.0011250343333231605
76,1643843405.8977213,0.001250038148136845
77,1643843405.900428,0.001250038148136845
78,1643843405.9031343,0.0011250343333231605
79,1643843405.905861,0.001250038148136845
80,1643843405.9085708,0.0011250343333231605
81,1643843405.911279,0.001250038148136845
82,1643843405.9139857,0.001250038148136845
83,1643843405.916695,0.001250038148136845
84,1643843405.9194021,0.0011250343333231605
85,1643843405.922109,0.0011250343333231605
86,1643843405.9248157,0.0011250343333231605
87,1643843405.9275224,0.001250038148136845
88,1643843405.9302304,0.0011250343333231605
89,1643843405.9329371,0.001250038148136845
90,1643843405.9356446,0.001250038148136845
91,1643843405.9383543,0.001250038148136845
92,1643843405.9410608,0.001250038148136845
93,1643843405.943767,0.0011250343333231605
94,1643843405.9464748,0.001000030518509476
95,1643843405.9491818,0.0011250343333231605
96,1643843405.9518874,0.001000030518509476
97,1643843405.9545934,0.001000030518509476
98,1643843405.9573019,0.001000030518509476
99,1643843405.9600081,0.0008750267036957915
100,1643843405.962715,0.0011250343333231605
101,1643843405.9654222,0.001000030518509476
102,1643843405.9681284,0.001000030518509476
103,1643843405.9708357,0.001000030518509476
104,1643843405.9735425,0.0008750267036957915
105,1643843405.9762487,0.0008750267036957915
106,1643843405.978973,0.001000030518509476
107,1643843405.9816809,0.0011250343333231605
108,1643843405.9843879,0.001000030518509476
109,1643843405.9870965,0.001000030518509476
110,1643843405.9898021,0.001000030518509476
111,1643843405.9925086,0.0008750267036957915
112,1643843405.9952147,0.0008750267036957915
113,1643843405.9979224,0.0008750267036957915
114,1643843406.0006292,0.0008750267036957915
115,1643843406.0033364,0.0008750267036957915
116,1643843406.006043,0.001000030518509476
117,1643843406.008752,0.001000030518509476
118,1643843406.011459,0.0011250343333231605
119,1643843406.014165,0.0011250343333231605
120,1643843406.016873,0.001250038148136845
121,1643843406.0195792,0.0011250343333231605
122,1643843406.0222855,0.0011250343333231605
123,1643843406.024992,0.0011250343333231605
124,1643843406.0277,0.001250038148136845
125,1643843406.0304067,0.001250038148136845
126,1643843406.0331132,0.001250038148136845
127,1643843406.035824,0.0013750419629505295
128,1643843406.0385332,0.0011250343333231605
129,1643843406.0412397,0.0011250343333231605
130,1643843406.0439465,0.0011250343333231605
131,1643843406.0466535,0.0011250343333231605
132,1643843406.0493598,0.001000030518509476
133,1643843406.0520663,0.0011250343333231605
134,1643843406.0547729,0.001000030518509476
135,1643843406.057492,0.001000030518509476
136,1643843406.060198,0.0011250343333231605
137,1643843406.0629048,0.001000030518509476
138,1643843406.0656118,0.001000030518509476
139,1643843406.0683203,0.0011250343333231605
140,1643843406.0710273,0.0011250343333231605
141,1643843406.0737333,0.001000030518509476
142,1643843406.0764418,0.001000030518509476
143,1643843406.079149,0.001000030518509476
144,1643843406.0818555,0.001000030518509476
145,1643843406.0845618,0.001000030518509476
146,1643843406.087271,0.0011250343333231605
147,1643843406.089977,0.0008750267036957915
148,1643843406.0926836,0.0008750267036957915
149,1643843406.0953922,0.0008750267036957915
150,1643843406.0981,0.0008750267036957915
151,1643843406.1008062,0.001000030518509476
152,1643843406.1035123,0.001000030518509476
153,1643843406.106218,0.0008750267036957915
154,1643843406.108926,0.0007500228888821071
155,1643843406.1116314,0.0008750267036957915
156,1643843406.114337,0.0008750267036957915
157,1643843406.1170444,0.0007500228888821071
158,1643843406.1197517,0.0007500228888821071
159,1643843406.1224577,0.0006250190740684225
160,1643843406.1251636,0.0006250190740684225
161,1643843406.1278715,0.0006250190740684225
162,1643843406.1305773,0.0007500228888821071
163,1643843406.133284,0.0007500228888821071
164,1643843406.1359894,0.0006250190740684225
165,1643843406.1386974,0.000500015259254738
166,1643843406.1414042,0.0006250190740684225
167,1643843406.1441107,0.000500015259254738
168,1643843406.1468186,0.0006250190740684225
169,1643843406.1495252,0.0006250190740684225
170,1643843406.1522322,0.0006250190740684225
171,1643843406.1549385,0.0007500228888821071
172,1643843406.1576464,0.000500015259254738
173,1643843406.1603525,0.0006250190740684225
174,1643843406.163062,0.0006250190740684225
175,1643843406.1657689,0.0007500228888821071
176,1643843406.1684773,0.0006250190740684225
177,1643843406.1711836,0.0006250190740684225
178,1643843406.1738896,0.0007500228888821071
179,1643843406.176598,0.0008750267036957915
180,1643843406.1793137,0.0007500228888821071
181,1643843406.1820204,0.0007500228888821071
182,1643843406.1847267,0.0007500228888821071
183,1643843406.1874352,0.0007500228888821071
184,1643843406.1901412,0.0006250190740684225
185,1643843406.1928473,0.000500015259254738
186,1643843406.1955533,0.000500015259254738
187,1643843406.1982617,0.0006250190740684225
188,1643843406.200968,0.0006250190740684225
189,1643843406.2036738,0.0006250190740684225
190,1643843406.2063816,0.000500015259254738
191,1643843406.2090878,0.000500015259254738
192,1643843406.2117932,0.000500015259254738
193,1643843406.2144992,0.00037501144444105353
194,1643843406.217208,0.00037501144444105353
195,1643843406.2199142,0.00037501144444105353
196,1643843406.2226207,0.000500015259254738
197,1643843406.2253263,0.00037501144444105353
198,1643843406.2280338,0.00037501144444105353
199,1643843406.2307405,0.000500015259254738
200,1643843406.2334464,0.000500015259254738
201,1643843406.2361534,0.00037501144444105353
202,1643843406.2389019,0.00037501144444105353
203,1643843406.2416098,0.000250007629627369
204,1643843406.244316,0.00037501144444105353
205,1643843406.247024,0.00037501144444105353
206,1643843406.2497313,0.00037501144444105353
207,1643843406.2524376,0.000500015259254738
208,1643843406.2551436,0.00037501144444105353
209,1643843406.257854,0.000500015259254738
210,1643843406.26056,0.000500015259254738
211,1643843406.2632663,0.000500015259254738
212,1643843406.2659724,0.0006250190740684225
213,1643843406.2686803,0.000500015259254738
214,1643843406.2713869,0.000500015259254738
215,1643843406.2740934,0.0006250190740684225
216,1643843406.2768016,0.000500015259254738
217,1643843406.2795079,0.0006250190740684225
218,1643843406.282214,0.0006250190740684225
219,1643843406.28492,0.000500015259254738
220,1643843406.2876277,0.000500015259254738
221,1643843406.290334,0.00037501144444105353
222,1643843406.2930396,0.00037501144444105353
223,1643843406.2957454,0.000500015259254738
224,1643843406.2984538,0.000500015259254738
225,1643843406.301161,0.000500015259254738
226,1643843406.3038669,0.000500015259254738
227,1643843406.3065743,0.000500015259254738
228,1643843406.3092804,0.000500015259254738
229,1643843406.3119872,0.00037501144444105353
230,1643843406.314693,0.00037501144444105353
231,1643843406.3174012,0.00037501144444105353
232,1643843406.3201077,0.000250007629627369
233,1643843406.3228374,0.000250007629627369
234,1643843406.3256414,0.000250007629627369
235,1643843406.328421,0.0001250038148136845
236,1643843406.3312166,0.000250007629627369
237,1643843406.3345566,0.0001250038148136845
238,1643843406.3373947,0.000250007629627369
239,1643843406.3402255,0.0
240,1643843406.343046,0.0001250038148136845
241,1643843406.3458416,0.000250007629627369
242,1643843406.3485858,0.000250007629627369
243,1643843406.3512967,0.000250007629627369
244,1643843406.3540032,0.0001250038148136845
245,1643843406.3567095,0.000250007629627369
246,1643843406.3594208,0.000250007629627369
247,1643843406.362127,0.000250007629627369
248,1643843406.3648329,0.000250007629627369
249,1643843406.3675387,0.000250007629627369
250,1643843406.3702474,0.000250007629627369
251,1643843406.3729508,0.00037501144444105353
252,1643843406.3756547,0.00037501144444105353
253,1643843406.3783588,0.000500015259254738
254,1643843406.3810642,0.000500015259254738
255,1643843406.3837683,0.0006250190740684225
256,1643843406.3864725,0.000500015259254738
257,1643843406.38928,0.0006250190740684225
258,1643843406.3921106,0.000500015259254738
259,1643843406.3949342,0.0006250190740684225
260,1643843406.397761,0.000500015259254738
261,1643843406.4005895,0.000500015259254738
262,1643843406.403442,0.0006250190740684225
263,1643843406.4062643,0.00037501144444105353
264,1643843406.4091287,0.00037501144444105353
265,1643843406.4119494,0.00037501144444105353
266,1643843406.4147701,0.00037501144444105353
267,1643843406.4175923,0.000250007629627369
268,1643843406.420416,0.00037501144444105353
269,1643843406.4232364,0.00037501144444105353
270,1643843406.4260628,0.00037501144444105353
271,1643843406.4289227,0.000250007629627369
272,1643843406.4317443,0.000250007629627369
273,1643843406.4345665,0.000250007629627369
274,1643843406.4373927,0.0001250038148136845
275,1643843406.4402304,0.0
276,1643843406.443064,0.0001250038148136845
277,1643843406.4458957,0.0001250038148136845
278,1643843406.4487329,0.0001250038148136845
279,1643843406.4515638,0.0001250038148136845
280,1643843406.454397,0.0001250038148136845
281,1643843406.4572566,0.0001250038148136845
282,1643843406.4600885,0.0001250038148136845
283,1643843406.462917,0.000250007629627369
284,1643843406.4657485,0.00037501144444105353
285,1643843406.4685838,0.00037501144444105353
286,1643843406.471414,0.000500015259254738
287,1643843406.4742465,0.00037501144444105353
288,1643843406.4770768,0.000500015259254738
289,1643843406.4799073,0.000500015259254738
290,1643843406.4827402,0.000500015259254738
291,1643843406.4855697,0.00037501144444105353
292,1643843406.4885163,0.00037501144444105353
293,1643843406.4913464,0.00037501144444105353
294,1643843406.4941537,0.00037501144444105353
295,1643843406.49696,0.00037501144444105353
296,1643843406.4997616,0.00037501144444105353
297,1643843406.502564,0.00037501144444105353
298,1643843406.5053635,0.000250007629627369
299,1643843406.5081675,0.0001250038148136845
300,1643843406.5109704,0.0001250038148136845
301,1643843406.5137713,0.000250007629627369
302,1643843406.5165746,0.0001250038148136845
303,1643843406.5193772,0.000250007629627369
304,1643843406.5221772,0.000250007629627369
305,1643843406.524978,0.0001250038148136845
306,1643843406.527783,0.0001250038148136845
307,1643843406.530584,0.0001250038148136845
308,1643843406.5333858,0.0
309,1643843406.536187,0.0
310,1643843406.538994,-0.0001250038148136845
311,1643843406.5417955,-0.000250007629627369
312,1643843406.5445983,-0.0001250038148136845
313,1643843406.547405,-0.0001250038148136845
314,1643843406.550207,-0.0001250038148136845
315,1643843406.5530083,-0.000250007629627369
316,1643843406.5558102,-0.00037501144444105353
317,1643843406.5586154,-0.000250007629627369
318,1643843406.561417,-0.00037501144444105353
319,1643843406.564219,-0.00037501144444105353
320,1643843406.567021,-0.000250007629627369
321,1643843406.5698245,-0.0001250038148136845
322,1643843406.572626,-0.0001250038148136845
323,1643843406.5754275,-0.0001250038148136845
324,1643843406.5782328,-0.0001250038148136845
325,1643843406.5810344,-0.0001250038148136845
326,1643843406.5838366,-0.0001250038148136845
327,1643843406.5866416,-0.000250007629627369
328,1643843406.5894685,-0.000250007629627369
329,1643843406.592272,-0.0001250038148136845
330,1643843406.5950744,-0.0001250038148136845
331,1643843406.5978787,0.0
332,1643843406.6006799,0.0
333,1643843406.6034799,0.0
334,1643843406.6063097,0.0
335,1643843406.6091127,0.0
336,1643843406.6119127,-0.0001250038148136845
337,1643843406.6147165,0.0
338,1643843406.6175203,0.0
339,1643843406.6203198,0.0
340,1643843406.623122,0.0
341,1643843406.625922,-0.0001250038148136845
342,1643843406.6287265,-0.0001250038148136845
343,1643843406.6315296,-0.000250007629627369
344,1643843406.6343312,-0.0001250038148136845
345,1643843406.6371348,-0.000250007629627369
346,1643843406.6399364,-0.000250007629627369
347,1643843406.642737,-0.000250007629627369
348,1643843406.6455386,-0.000250007629627369
349,1643843406.6483445,-0.000250007629627369
350,1643843406.6511462,-0.000250007629627369
351,1643843406.6539478,-0.000250007629627369
352,1643843406.6567528,-0.00037501144444105353
353,1643843406.6595538,-0.000250007629627369
354,1643843406.6623554,-0.0001250038148136845
355,1643843406.66516,-0.0001250038148136845
356,1643843406.6679654,0.0
357,1643843406.670767,0.0
358,1643843406.6735678,-0.0001250038148136845
359,1643843406.6763725,-0.0001250038148136845
360,1643843406.6791742,0.0
361,1643843406.6819744,0.0001250038148136845
362,1643843406.6847768,0.0
363,1643843406.6875813,0.0
364,1643843406.6904058,-0.0001250038148136845
365,1643843406.6932094,0.0
366,1643843406.6960106,0.0
367,1643843406.6988144,0.0
368,1643843406.7016149,0.0
369,1643843406.7044163,0.0
370,1643843406.7072194,-0.0001250038148136845
371,1643843406.7100208,-0.0001250038148136845
372,1643843406.7128224,0.0
373,1643843406.7156222,0.0
374,1643843406.7184262,0.0
375,1643843406.7212267,-0.0001250038148136845
376,1643843406.7240272,-0.0001250038148136845
377,1643843406.7268312,-0.000250007629627369
378,1643843406.729633,-0.000250007629627369
379,1643843406.7324343,-0.000250007629627369
380,1643843406.735234,-0.00037501144444105353
381,1643843406.7380395,-0.000250007629627369
382,1643843406.7408626,-0.00037501144444105353
383,1643843406.7436664,-0.00037501144444105353
384,1643843406.7464743,-0.00037501144444105353
385,1643843406.7492764,-0.00037501144444105353
386,1643843406.7520788,-0.00037501144444105353
387,1643843406.75488,-0.000500015259254738
388,1643843406.757684,-0.000500015259254738
389,1643843406.760511,-0.00037501144444105353
390,1643843406.7633326,-0.00037501144444105353
391,1643843406.766134,-0.00037501144444105353
392,1643843406.7689397,-0.000250007629627369
393,1643843406.7717416,-0.00037501144444105353
394,1643843406.7745423,-0.00037501144444105353
395,1643843406.777347,-0.00037501144444105353
396,1643843406.780148,-0.00037501144444105353
397,1643843406.782948,-0.00037501144444105353
398,1643843406.7857478,-0.00037501144444105353
399,1643843406.7885523,-0.00037501144444105353
400,1643843406.7913768,-0.00037501144444105353
401,1643843406.7941797,-0.00037501144444105353
402,1643843406.7969856,-0.000250007629627369
403,1643843406.7997875,-0.000250007629627369
404,1643843406.8025894,-0.00037501144444105353
405,1643843406.8053904,-0.00037501144444105353
406,1643843406.8081942,-0.00037501144444105353
407,1643843406.8109987,-0.00037501144444105353
408,1643843406.813799,-0.000250007629627369
409,1643843406.8166027,-0.0001250038148136845
410,1643843406.819404,-0.000250007629627369
411,1643843406.8222039,-0.000250007629627369
412,1643843406.825005,-0.00037501144444105353
413,1643843406.8278055,-0.000250007629627369
414,1643843406.830606,-0.000250007629627369
415,1643843406.8334074,-0.000250007629627369
416,1643843406.8362086,-0.000250007629627369
417,1643843406.8390443,-0.00037501144444105353
418,1643843406.841847,-0.00037501144444105353
419,1643843406.844649,-0.00037501144444105353
420,1643843406.8474498,-0.00037501144444105353
421,1643843406.8502507,-0.00037501144444105353
422,1643843406.853051,-0.000500015259254738
423,1643843406.8558526,-0.0006250190740684225
424,1643843406.8586593,-0.000500015259254738
425,1643843406.8614604,-0.000500015259254738
426,1643843406.8642626,-0.000500015259254738
427,1643843406.8670673,-0.00037501144444105353
428,1643843406.8698692,-0.00037501144444105353
429,1643843406.8726726,-0.000500015259254738
430,1643843406.875474,-0.000500015259254738
431,1643843406.8782778,-0.000500015259254738
432,1643843406.8810813,-0.00037501144444105353
433,1643843406.8838823,-0.00037501144444105353
434,1643843406.8866868,-0.000500015259254738
435,1643843406.8894897,-0.000500015259254738
436,1643843406.8923159,-0.00037501144444105353
437,1643843406.895118,-0.000500015259254738
438,1643843406.897922,-0.000500015259254738
439,1643843406.900723,-0.00037501144444105353
440,1643843406.903524,-0.00037501144444105353
441,1643843406.9063287,-0.000500015259254738
442,1643843406.9091291,-0.00037501144444105353
443,1643843406.9119306,-0.00037501144444105353
444,1643843406.9147313,-0.00037501144444105353
445,1643843406.917536,-0.000250007629627369
446,1643843406.9203372,-0.00037501144444105353
447,1643843406.9231389,-0.000500015259254738
448,1643843406.9259386,-0.000500015259254738
449,1643843406.9287415,-0.000500015259254738
450,1643843406.931542,-0.000500015259254738
451,1643843406.9343424,-0.000500015259254738
452,1643843406.9371467,-0.000500015259254738
453,1643843406.9399476,-0.0006250190740684225
454,1643843406.9427488,-0.0006250190740684225
455,1643843406.9455523,-0.0006250190740684225
456,1643843406.9483562,-0.0007500228888821071
457,1643843406.9511576,-0.0006250190740684225
458,1643843406.9539587,-0.0008750267036957915
