,Time (s),Signal (V)
0,1643897928.7694833,0.0060001831110568565
1,1643897928.777115,0.006250190740684225
2,1643897928.7798474,0.006250190740684225
3,1643897928.7825587,0.006250190740684225
4,1643897928.7852688,0.006250190740684225
5,1643897928.7879815,0.00612518692587054
6,1643897928.7906892,0.00612518692587054
7,1643897928.7933958,0.00612518692587054
8,1643897928.7961166,0.006250190740684225
9,1643897928.7988238,0.00612518692587054
10,1643897928.8015296,0.00612518692587054
11,1643897928.8042347,0.006250190740684225
12,1643897928.806942,0.00612518692587054
13,1643897928.8096533,0.00612518692587054
14,1643897928.812362,0.00637519455549791
15,1643897928.8150718,0.00612518692587054
16,1643897928.8177793,0.00612518692587054
17,1643897928.8204873,0.0060001831110568565
18,1643897928.8231947,0.00612518692587054
19,1643897928.8259034,0.00612518692587054
20,1643897928.828611,0.00612518692587054
21,1643897928.8313189,0.006250190740684225
22,1643897928.8340263,0.00612518692587054
23,1643897928.8367362,0.006250190740684225
24,1643897928.839443,0.00612518692587054
25,1643897928.8421507,0.0060001831110568565
26,1643897928.84486,0.006250190740684225
27,1643897928.8475678,0.006250190740684225
28,1643897928.850275,0.00612518692587054
29,1643897928.8529813,0.0060001831110568565
30,1643897928.8556898,0.00612518692587054
31,1643897928.8583965,0.0060001831110568565
32,1643897928.8611033,0.00612518692587054
33,1643897928.8638105,0.0060001831110568565
34,1643897928.8665183,0.0060001831110568565
35,1643897928.8692253,0.0060001831110568565
36,1643897928.8719318,0.0060001831110568565
37,1643897928.874638,0.005875179296243172
38,1643897928.8773577,0.005875179296243172
39,1643897928.8800654,0.00612518692587054
40,1643897928.8827744,0.0060001831110568565
41,1643897928.8854845,0.0060001831110568565
42,1643897928.888192,0.0060001831110568565
43,1643897928.890899,0.0060001831110568565
44,1643897928.8936062,0.0060001831110568565
45,1643897928.8963146,0.006250190740684225
46,1643897928.8990216,0.00612518692587054
47,1643897928.9017293,0.006250190740684225
48,1643897928.9044352,0.00612518692587054
49,1643897928.907143,0.006250190740684225
50,1643897928.90985,0.00637519455549791
51,1643897928.9125593,0.00637519455549791
52,1643897928.9152825,0.006500198370311594
53,1643897928.917992,0.00637519455549791
54,1643897928.9207008,0.006250190740684225
55,1643897928.9234087,0.006250190740684225
56,1643897928.9261184,0.006500198370311594
57,1643897928.9288263,0.006625202185125278
58,1643897928.9315345,0.006750205999938963
59,1643897928.9342437,0.006625202185125278
60,1643897928.936953,0.006625202185125278
61,1643897928.9396613,0.006750205999938963
62,1643897928.9423685,0.006625202185125278
63,1643897928.9450774,0.006625202185125278
64,1643897928.9477847,0.007000213629566332
65,1643897928.9504917,0.0068752098147526475
66,1643897928.9531991,0.006750205999938963
67,1643897928.955908,0.006750205999938963
68,1643897928.9586153,0.006750205999938963
69,1643897928.9613225,0.007000213629566332
70,1643897928.964029,0.0068752098147526475
71,1643897928.9667385,0.0068752098147526475
72,1643897928.969446,0.006750205999938963
73,1643897928.972154,0.006750205999938963
74,1643897928.974862,0.0068752098147526475
75,1643897928.9775693,0.0068752098147526475
76,1643897928.980276,0.007000213629566332
77,1643897928.9829829,0.007000213629566332
78,1643897928.98569,0.0068752098147526475
79,1643897928.9883986,0.007000213629566332
80,1643897928.9911053,0.0068752098147526475
81,1643897928.9938126,0.0068752098147526475
82,1643897928.996521,0.006750205999938963
83,1643897928.9992425,0.006750205999938963
84,1643897929.0019503,0.006750205999938963
85,1643897929.0046577,0.006625202185125278
86,1643897929.00738,0.006750205999938963
87,1643897929.0100875,0.006750205999938963
88,1643897929.0127947,0.006750205999938963
89,1643897929.0155056,0.006750205999938963
90,1643897929.018213,0.006750205999938963
91,1643897929.0209196,0.006750205999938963
92,1643897929.023626,0.006750205999938963
93,1643897929.0263343,0.006750205999938963
94,1643897929.0290413,0.0068752098147526475
95,1643897929.0317495,0.0068752098147526475
96,1643897929.0344563,0.006750205999938963
97,1643897929.0371647,0.006750205999938963
98,1643897929.0398715,0.006750205999938963
99,1643897929.0425785,0.0068752098147526475
100,1643897929.0452874,0.006750205999938963
101,1643897929.0479946,0.006750205999938963
102,1643897929.0507016,0.007000213629566332
103,1643897929.0534081,0.0068752098147526475
104,1643897929.0561173,0.0068752098147526475
105,1643897929.0588245,0.0068752098147526475
106,1643897929.061531,0.0068752098147526475
107,1643897929.0642393,0.0068752098147526475
108,1643897929.066947,0.006750205999938963
109,1643897929.0696542,0.006750205999938963
110,1643897929.072361,0.006750205999938963
111,1643897929.0750694,0.006750205999938963
112,1643897929.0777767,0.0068752098147526475
113,1643897929.0804837,0.0068752098147526475
114,1643897929.08319,0.0068752098147526475
115,1643897929.0858984,0.007000213629566332
116,1643897929.0886052,0.006750205999938963
117,1643897929.091312,0.0068752098147526475
118,1643897929.0940182,0.0068752098147526475
119,1643897929.0967274,0.0068752098147526475
120,1643897929.0994341,0.0068752098147526475
121,1643897929.1021414,0.0068752098147526475
122,1643897929.1048503,0.0068752098147526475
123,1643897929.1075568,0.007125217444380017
124,1643897929.1102633,0.007125217444380017
125,1643897929.1129696,0.007125217444380017
126,1643897929.1156783,0.007000213629566332
127,1643897929.118389,0.0068752098147526475
128,1643897929.121096,0.007000213629566332
129,1643897929.1238034,0.007000213629566332
130,1643897929.1265123,0.007125217444380017
131,1643897929.1292198,0.007125217444380017
132,1643897929.131927,0.007125217444380017
133,1643897929.1346338,0.007000213629566332
134,1643897929.1373403,0.007125217444380017
135,1643897929.1400602,0.007000213629566332
136,1643897929.142767,0.007125217444380017
137,1643897929.1454751,0.007125217444380017
138,1643897929.1481826,0.007125217444380017
139,1643897929.150889,0.007125217444380017
140,1643897929.153596,0.0072502212591937015
141,1643897929.1563044,0.007125217444380017
142,1643897929.1590114,0.0072502212591937015
143,1643897929.1617186,0.0072502212591937015
144,1643897929.164425,0.007125217444380017
145,1643897929.1671333,0.007125217444380017
146,1643897929.16984,0.007000213629566332
147,1643897929.1725466,0.007125217444380017
148,1643897929.1752532,0.007125217444380017
149,1643897929.177963,0.0072502212591937015
150,1643897929.1806705,0.0072502212591937015
151,1643897929.1833768,0.007125217444380017
152,1643897929.1860852,0.007125217444380017
153,1643897929.1887922,0.007125217444380017
154,1643897929.191499,0.0072502212591937015
155,1643897929.194206,0.007125217444380017
156,1643897929.1969144,0.0072502212591937015
157,1643897929.199621,0.007125217444380017
158,1643897929.2023268,0.007125217444380017
159,1643897929.2050354,0.0072502212591937015
160,1643897929.207742,0.007125217444380017
161,1643897929.210448,0.0072502212591937015
162,1643897929.2131553,0.007125217444380017
163,1643897929.2158632,0.007125217444380017
164,1643897929.2185698,0.007125217444380017
165,1643897929.2212768,0.007125217444380017
166,1643897929.2239833,0.007125217444380017
167,1643897929.2266922,0.007125217444380017
168,1643897929.2293983,0.0072502212591937015
169,1643897929.2321045,0.0072502212591937015
170,1643897929.234813,0.007000213629566332
171,1643897929.23752,0.007125217444380017
172,1643897929.2402267,0.007000213629566332
173,1643897929.2429333,0.007000213629566332
174,1643897929.2456458,0.007000213629566332
175,1643897929.248353,0.007125217444380017
176,1643897929.2510595,0.007125217444380017
177,1643897929.2537663,0.0072502212591937015
178,1643897929.2564747,0.007375225074007386
179,1643897929.2591784,0.007125217444380017
180,1643897929.2618814,0.007125217444380017
181,1643897929.2645845,0.007125217444380017
182,1643897929.2672892,0.007125217444380017
183,1643897929.2699976,0.007000213629566332
184,1643897929.272716,0.007125217444380017
185,1643897929.275425,0.0072502212591937015
186,1643897929.2781327,0.007125217444380017
187,1643897929.28084,0.0072502212591937015
188,1643897929.2835462,0.007125217444380017
189,1643897929.2862546,0.007125217444380017
190,1643897929.2889616,0.007000213629566332
191,1643897929.291668,0.007125217444380017
192,1643897929.2943745,0.007000213629566332
193,1643897929.2970827,0.007125217444380017
194,1643897929.299789,0.007125217444380017
195,1643897929.3025672,0.007000213629566332
196,1643897929.3052971,0.007125217444380017
197,1643897929.3080807,0.007125217444380017
198,1643897929.3108609,0.0072502212591937015
199,1643897929.3136399,0.007000213629566332
200,1643897929.316424,0.007125217444380017
201,1643897929.3192043,0.007000213629566332
202,1643897929.3219872,0.007000213629566332
203,1643897929.3247674,0.007000213629566332
204,1643897929.327572,0.007125217444380017
205,1643897929.330351,0.0072502212591937015
206,1643897929.3331301,0.007000213629566332
207,1643897929.3359125,0.007125217444380017
208,1643897929.338691,0.007125217444380017
209,1643897929.3414686,0.007000213629566332
210,1643897929.344249,0.007125217444380017
211,1643897929.3470314,0.007125217444380017
212,1643897929.3498094,0.007125217444380017
213,1643897929.3525875,0.007125217444380017
214,1643897929.3553693,0.007125217444380017
215,1643897929.3581479,0.007375225074007386
216,1643897929.3609264,0.0072502212591937015
217,1643897929.3637047,0.007125217444380017
218,1643897929.3664858,0.007125217444380017
219,1643897929.3692636,0.007000213629566332
220,1643897929.3720412,0.007000213629566332
221,1643897929.374823,0.0072502212591937015
222,1643897929.3776016,0.0072502212591937015
223,1643897929.3803794,0.0072502212591937015
224,1643897929.383158,0.007125217444380017
225,1643897929.3859386,0.007125217444380017
226,1643897929.3887184,0.007125217444380017
227,1643897929.3914993,0.007125217444380017
228,1643897929.3942778,0.0072502212591937015
229,1643897929.3970597,0.0072502212591937015
230,1643897929.3998392,0.0072502212591937015
231,1643897929.4027035,0.0072502212591937015
232,1643897929.4054942,0.0072502212591937015
233,1643897929.4082985,0.0072502212591937015
234,1643897929.4111059,0.007375225074007386
235,1643897929.4139075,0.0072502212591937015
236,1643897929.4167132,0.007125217444380017
237,1643897929.4195085,0.007125217444380017
238,1643897929.4223015,0.007125217444380017
239,1643897929.4251003,0.0072502212591937015
240,1643897929.427906,0.0072502212591937015
241,1643897929.4307082,0.007125217444380017
242,1643897929.4335103,0.0072502212591937015
243,1643897929.4363163,0.007125217444380017
244,1643897929.439117,0.007125217444380017
245,1643897929.4419181,0.007000213629566332
246,1643897929.4447186,0.007125217444380017
247,1643897929.4475465,0.007125217444380017
248,1643897929.4503472,0.0072502212591937015
249,1643897929.453148,0.007125217444380017
250,1643897929.4559531,0.0072502212591937015
251,1643897929.4587548,0.0072502212591937015
252,1643897929.461555,0.007375225074007386
253,1643897929.464356,0.0072502212591937015
254,1643897929.4671602,0.007125217444380017
255,1643897929.469962,0.007125217444380017
256,1643897929.4727616,0.007125217444380017
257,1643897929.475566,0.007125217444380017
258,1643897929.4783678,0.0072502212591937015
259,1643897929.4811676,0.007125217444380017
260,1643897929.4839683,0.007125217444380017
261,1643897929.4867735,0.007125217444380017
262,1643897929.489612,0.007000213629566332
263,1643897929.4924145,0.007000213629566332
264,1643897929.4952185,0.007125217444380017
265,1643897929.4980192,0.007125217444380017
266,1643897929.5008197,0.007125217444380017
267,1643897929.5036464,0.007000213629566332
268,1643897929.5064535,0.007000213629566332
269,1643897929.5092554,0.007000213629566332
270,1643897929.5120604,0.007000213629566332
271,1643897929.514865,0.007000213629566332
272,1643897929.5176656,0.007000213629566332
273,1643897929.5204675,0.007000213629566332
274,1643897929.523267,0.007000213629566332
275,1643897929.526071,0.007125217444380017
276,1643897929.528873,0.007125217444380017
277,1643897929.5316725,0.0072502212591937015
278,1643897929.534473,0.007125217444380017
279,1643897929.5372775,0.007000213629566332
280,1643897929.5400784,0.007000213629566332
281,1643897929.5428784,0.007125217444380017
282,1643897929.5456839,0.007125217444380017
283,1643897929.5484848,0.007125217444380017
284,1643897929.5512853,0.007125217444380017
285,1643897929.5541055,0.007000213629566332
286,1643897929.556906,0.007125217444380017
287,1643897929.5597079,0.007125217444380017
288,1643897929.562508,0.007375225074007386
289,1643897929.5653079,0.007125217444380017
290,1643897929.5681088,0.0072502212591937015
291,1643897929.570909,0.007125217444380017
292,1643897929.573709,0.007125217444380017
293,1643897929.5765092,0.0072502212591937015
294,1643897929.5793087,0.0072502212591937015
295,1643897929.5821095,0.0072502212591937015
296,1643897929.5849106,0.007125217444380017
297,1643897929.5877116,0.007000213629566332
298,1643897929.5905118,0.007125217444380017
299,1643897929.5933125,0.007125217444380017
300,1643897929.596117,0.0072502212591937015
301,1643897929.5989184,0.0072502212591937015
302,1643897929.6017194,0.0072502212591937015
303,1643897929.6045456,0.0072502212591937015
304,1643897929.6073494,0.0072502212591937015
305,1643897929.610153,0.0072502212591937015
306,1643897929.6129541,0.0072502212591937015
307,1643897929.6157591,0.007375225074007386
308,1643897929.618559,0.007375225074007386
309,1643897929.6213603,0.0072502212591937015
310,1643897929.624162,0.0072502212591937015
311,1643897929.6269655,0.007375225074007386
312,1643897929.6297662,0.007375225074007386
313,1643897929.6325657,0.007375225074007386
314,1643897929.6353683,0.007375225074007386
315,1643897929.638169,0.007375225074007386
316,1643897929.6409686,0.007375225074007386
317,1643897929.6437688,0.007375225074007386
318,1643897929.6465728,0.00750022888882107
319,1643897929.649375,0.007375225074007386
320,1643897929.6521757,0.007375225074007386
321,1643897929.6549804,0.007375225074007386
322,1643897929.6577833,0.007375225074007386
323,1643897929.6605835,0.007375225074007386
324,1643897929.6633832,0.00750022888882107
325,1643897929.666185,0.007625232703634755
326,1643897929.6689863,0.0072502212591937015
327,1643897929.6717863,0.007375225074007386
328,1643897929.6745877,0.007375225074007386
329,1643897929.6774156,0.00750022888882107
330,1643897929.6802177,0.00750022888882107
331,1643897929.68302,0.00750022888882107
332,1643897929.6858206,0.0072502212591937015
333,1643897929.6886218,0.007375225074007386
334,1643897929.691424,0.0072502212591937015
335,1643897929.6942244,0.00750022888882107
336,1643897929.6970277,0.007375225074007386
337,1643897929.6998298,0.00750022888882107
338,1643897929.702631,0.0072502212591937015
339,1643897929.7054586,0.007375225074007386
340,1643897929.7082615,0.0072502212591937015
341,1643897929.7110612,0.00750022888882107
342,1643897929.7138622,0.007375225074007386
343,1643897929.716667,0.007375225074007386
344,1643897929.7194674,0.0072502212591937015
345,1643897929.7222679,0.007375225074007386
346,1643897929.7250721,0.0072502212591937015
347,1643897929.7278733,0.00750022888882107
348,1643897929.730673,0.007375225074007386
349,1643897929.733474,0.00750022888882107
350,1643897929.7362785,0.007375225074007386
351,1643897929.7390802,0.00750022888882107
352,1643897929.7418807,0.007375225074007386
353,1643897929.7446818,0.007625232703634755
354,1643897929.7474847,0.007625232703634755
355,1643897929.7502897,0.007625232703634755
356,1643897929.7530901,0.00750022888882107
357,1643897929.7558908,0.00750022888882107
358,1643897929.7586923,0.00750022888882107
359,1643897929.7614927,0.007625232703634755
360,1643897929.764292,0.00750022888882107
361,1643897929.7670965,0.007750236518448439
362,1643897929.769897,0.007625232703634755
363,1643897929.7726965,0.007625232703634755
364,1643897929.7755005,0.00750022888882107
365,1643897929.7783005,0.007750236518448439
366,1643897929.781101,0.00750022888882107
367,1643897929.7839005,0.007625232703634755
368,1643897929.7867043,0.00750022888882107
369,1643897929.7895052,0.00750022888882107
370,1643897929.7923057,0.00750022888882107
371,1643897929.7951093,0.007625232703634755
372,1643897929.7979102,0.00750022888882107
373,1643897929.8007102,0.007625232703634755
374,1643897929.803512,0.00750022888882107
375,1643897929.8063397,0.00750022888882107
376,1643897929.809142,0.00750022888882107
377,1643897929.8119442,0.007625232703634755
378,1643897929.8147438,0.007375225074007386
379,1643897929.8175762,0.00750022888882107
380,1643897929.8203773,0.007375225074007386
381,1643897929.8231778,0.007625232703634755
382,1643897929.8259816,0.00750022888882107
383,1643897929.8287833,0.007625232703634755
384,1643897929.8315842,0.00750022888882107
385,1643897929.8343852,0.007375225074007386
386,1643897929.837212,0.007375225074007386
387,1643897929.8400135,0.00750022888882107
388,1643897929.8428137,0.007375225074007386
389,1643897929.8456392,0.007625232703634755
390,1643897929.848461,0.00750022888882107
391,1643897929.8512628,0.007625232703634755
392,1643897929.8540623,0.007375225074007386
393,1643897929.8568676,0.00750022888882107
394,1643897929.859669,0.00750022888882107
395,1643897929.8624694,0.007625232703634755
396,1643897929.8652728,0.00750022888882107
397,1643897929.8680732,0.007750236518448439
398,1643897929.8708725,0.007875240333262123
399,1643897929.8736749,0.007750236518448439
400,1643897929.8764784,0.007625232703634755
401,1643897929.87928,0.007750236518448439
402,1643897929.882081,0.007750236518448439
403,1643897929.884884,0.007625232703634755
404,1643897929.8876846,0.007625232703634755
405,1643897929.8904853,0.007625232703634755
406,1643897929.893287,0.007625232703634755
407,1643897929.8960922,0.007750236518448439
408,1643897929.898892,0.007750236518448439
409,1643897929.9016924,0.007875240333262123
410,1643897929.9044929,0.007750236518448439
411,1643897929.9073203,0.007750236518448439
412,1643897929.9101233,0.007750236518448439
413,1643897929.9129248,0.007625232703634755
414,1643897929.91573,0.007625232703634755
415,1643897929.9185297,0.007625232703634755
416,1643897929.92133,0.007750236518448439
417,1643897929.9241314,0.007625232703634755
418,1643897929.926935,0.007875240333262123
419,1643897929.9297357,0.007750236518448439
420,1643897929.9325378,0.007750236518448439
421,1643897929.9353426,0.007625232703634755
422,1643897929.9381435,0.007625232703634755
423,1643897929.9409451,0.007625232703634755
424,1643897929.9437559,0.007750236518448439
425,1643897929.9466467,0.007750236518448439
426,1643897929.9495041,0.007875240333262123
427,1643897929.9523304,0.007750236518448439
428,1643897929.9552064,0.007750236518448439
429,1643897929.9580622,0.007750236518448439
430,1643897929.9609053,0.007750236518448439
431,1643897929.9637876,0.007750236518448439
432,1643897929.9666588,0.007625232703634755
433,1643897929.9695377,0.007625232703634755
434,1643897929.9747355,0.008125247962889492
435,1643897929.9777174,0.007875240333262123
436,1643897929.9806292,0.007875240333262123
437,1643897929.9835596,0.007750236518448439
438,1643897929.9864507,0.007625232703634755
439,1643897929.9893103,0.007625232703634755
440,1643897929.9921582,0.007750236518448439
441,1643897929.9949617,0.007750236518448439
442,1643897929.9977658,0.007750236518448439
443,1643897930.000566,0.008000244148075809
444,1643897930.0033646,0.007750236518448439
445,1643897930.006163,0.007750236518448439
446,1643897930.0089939,0.007875240333262123
447,1643897930.0117934,0.007875240333262123
448,1643897930.01459,0.007875240333262123
449,1643897930.0175378,0.007875240333262123
450,1643897930.0203376,0.007750236518448439
451,1643897930.0231333,0.007875240333262123
452,1643897930.025929,0.007875240333262123
453,1643897930.0287259,0.007875240333262123
454,1643897930.0315197,0.007875240333262123
455,1643897930.0343122,0.007750236518448439
456,1643897930.0371065,0.007750236518448439
457,1643897930.039904,0.007750236518448439
