,Time (s),Signal (V)
0,1643844228.8207953,-0.0018750572222052675
1,1643844228.8284395,-0.0018750572222052675
2,1643844228.8311732,-0.001750053407391583
3,1643844228.8338847,-0.001750053407391583
4,1643844228.8365943,-0.0018750572222052675
5,1643844228.8393047,-0.0018750572222052675
6,1643844228.8420134,-0.0018750572222052675
7,1643844228.8447232,-0.001750053407391583
8,1643844228.8474445,-0.001750053407391583
9,1643844228.8501527,-0.001750053407391583
10,1643844228.8528602,-0.0016250495925778986
11,1643844228.8555655,-0.0016250495925778986
12,1643844228.8582711,-0.0016250495925778986
13,1643844228.8609776,-0.001750053407391583
14,1643844228.863683,-0.0016250495925778986
15,1643844228.8663902,-0.001750053407391583
16,1643844228.8691025,-0.001750053407391583
17,1643844228.8718133,-0.001750053407391583
18,1643844228.8745234,-0.0016250495925778986
19,1643844228.8772337,-0.0015000457777642141
20,1643844228.8799422,-0.0015000457777642141
21,1643844228.8826504,-0.0016250495925778986
22,1643844228.8853588,-0.0016250495925778986
23,1643844228.8880692,-0.0016250495925778986
24,1643844228.8907773,-0.0016250495925778986
25,1643844228.893485,-0.001750053407391583
26,1643844228.8961935,-0.0016250495925778986
27,1643844228.8989034,-0.0015000457777642141
28,1643844228.9016118,-0.0015000457777642141
29,1643844228.9043202,-0.0016250495925778986
30,1643844228.9070308,-0.0015000457777642141
31,1643844228.9097393,-0.0015000457777642141
32,1643844228.9124475,-0.0013750419629505295
33,1643844228.9151556,-0.0015000457777642141
34,1643844228.9178658,-0.0013750419629505295
35,1643844228.9205747,-0.0015000457777642141
36,1643844228.923284,-0.0013750419629505295
37,1643844228.9259915,-0.001250038148136845
38,1643844228.9287012,-0.001250038148136845
39,1643844228.9314091,-0.001250038148136845
40,1643844228.934117,-0.001250038148136845
41,1643844228.9368265,-0.0013750419629505295
42,1643844228.9395351,-0.001250038148136845
43,1643844228.9422426,-0.001250038148136845
44,1643844228.9449494,-0.001250038148136845
45,1643844228.947659,-0.001250038148136845
46,1643844228.9503677,-0.001250038148136845
47,1643844228.953077,-0.0011250343333231605
48,1643844228.9557855,-0.001250038148136845
49,1643844228.958495,-0.001250038148136845
50,1643844228.9612029,-0.001250038148136845
51,1643844228.9639106,-0.001250038148136845
52,1643844228.9666202,-0.001250038148136845
53,1643844228.9693284,-0.0013750419629505295
54,1643844228.9720368,-0.001250038148136845
55,1643844228.974744,-0.0011250343333231605
56,1643844228.9774537,-0.001250038148136845
57,1643844228.980161,-0.001250038148136845
58,1643844228.9828694,-0.0011250343333231605
59,1643844228.985577,-0.0011250343333231605
60,1643844228.9882867,-0.0011250343333231605
61,1643844228.9909945,-0.0011250343333231605
62,1643844228.9937022,-0.0011250343333231605
63,1643844228.9964113,-0.0011250343333231605
64,1643844228.9991193,-0.0011250343333231605
65,1643844229.001827,-0.0011250343333231605
66,1643844229.0045366,-0.0011250343333231605
67,1643844229.0072453,-0.001000030518509476
68,1643844229.0099576,-0.0008750267036957915
69,1643844229.012665,-0.001000030518509476
70,1643844229.015373,-0.0011250343333231605
71,1643844229.0180833,-0.001000030518509476
72,1643844229.020792,-0.001000030518509476
73,1643844229.0235004,-0.0008750267036957915
74,1643844229.0262082,-0.0007500228888821071
75,1643844229.0289183,-0.0007500228888821071
76,1643844229.0316265,-0.0007500228888821071
77,1643844229.0343344,-0.0008750267036957915
78,1643844229.0370579,-0.0007500228888821071
79,1643844229.0397663,-0.0008750267036957915
80,1643844229.0424743,-0.0007500228888821071
81,1643844229.0451825,-0.0007500228888821071
82,1643844229.0478902,-0.0007500228888821071
83,1643844229.0505996,-0.0006250190740684225
84,1643844229.0533085,-0.0007500228888821071
85,1643844229.056017,-0.0008750267036957915
86,1643844229.0587275,-0.0007500228888821071
87,1643844229.0614352,-0.0006250190740684225
88,1643844229.0641434,-0.0006250190740684225
89,1643844229.066854,-0.0007500228888821071
90,1643844229.0695627,-0.0007500228888821071
91,1643844229.072271,-0.0007500228888821071
92,1643844229.0749788,-0.0006250190740684225
93,1643844229.0776882,-0.000500015259254738
94,1643844229.080396,-0.000500015259254738
95,1643844229.083104,-0.0006250190740684225
96,1643844229.0858128,-0.0007500228888821071
97,1643844229.0885227,-0.0007500228888821071
98,1643844229.0912306,-0.0006250190740684225
99,1643844229.0939388,-0.0006250190740684225
100,1643844229.0966485,-0.0006250190740684225
101,1643844229.0993562,-0.000500015259254738
102,1643844229.1020646,-0.0006250190740684225
103,1643844229.1047726,-0.0006250190740684225
104,1643844229.1074822,-0.000500015259254738
105,1643844229.1101892,-0.0006250190740684225
106,1643844229.112897,-0.0006250190740684225
107,1643844229.1156063,-0.00037501144444105353
108,1643844229.1183155,-0.00037501144444105353
109,1643844229.1210227,-0.000500015259254738
110,1643844229.123731,-0.00037501144444105353
111,1643844229.126441,-0.00037501144444105353
112,1643844229.1291487,-0.00037501144444105353
113,1643844229.1318564,-0.00037501144444105353
114,1643844229.1345649,-0.000500015259254738
115,1643844229.1372747,-0.000500015259254738
116,1643844229.139983,-0.00037501144444105353
117,1643844229.142691,-0.000250007629627369
118,1643844229.1453986,-0.000250007629627369
119,1643844229.1481078,-0.00037501144444105353
120,1643844229.1508155,-0.000250007629627369
121,1643844229.1535232,-0.00037501144444105353
122,1643844229.1562307,-0.000500015259254738
123,1643844229.1589403,-0.00037501144444105353
124,1643844229.1616478,-0.00037501144444105353
125,1643844229.1643555,-0.00037501144444105353
126,1643844229.1670644,-0.00037501144444105353
127,1643844229.1697767,-0.000500015259254738
128,1643844229.1724854,-0.000250007629627369
129,1643844229.1751928,-0.000250007629627369
130,1643844229.177903,-0.00037501144444105353
131,1643844229.180611,-0.00037501144444105353
132,1643844229.1833184,-0.00037501144444105353
133,1643844229.1860254,-0.00037501144444105353
134,1643844229.1887345,-0.00037501144444105353
135,1643844229.1914546,-0.000250007629627369
136,1643844229.1941621,-0.000250007629627369
137,1643844229.1968708,-0.0001250038148136845
138,1643844229.1995797,-0.00037501144444105353
139,1643844229.2022874,-0.000250007629627369
140,1643844229.2049954,-0.00037501144444105353
141,1643844229.2077045,-0.00037501144444105353
142,1643844229.2104123,-0.000250007629627369
143,1643844229.21312,-0.0001250038148136845
144,1643844229.2158275,-0.000250007629627369
145,1643844229.2185364,-0.0001250038148136845
146,1643844229.2212448,-0.00037501144444105353
147,1643844229.223953,-0.0001250038148136845
148,1643844229.2266624,-0.0001250038148136845
149,1643844229.2293725,-0.0001250038148136845
150,1643844229.2320805,-0.000250007629627369
151,1643844229.234788,-0.000250007629627369
152,1643844229.237497,-0.000250007629627369
153,1643844229.2402046,-0.0001250038148136845
154,1643844229.242912,-0.0001250038148136845
155,1643844229.2456195,-0.0001250038148136845
156,1643844229.2483287,0.0
157,1643844229.251037,-0.0001250038148136845
158,1643844229.2537446,-0.000250007629627369
159,1643844229.256454,-0.000250007629627369
160,1643844229.2591617,-0.00037501144444105353
161,1643844229.261869,-0.0001250038148136845
162,1643844229.2645774,-0.0001250038148136845
163,1643844229.2672868,-0.0001250038148136845
164,1643844229.2699947,-0.0001250038148136845
165,1643844229.2727022,-0.0001250038148136845
166,1643844229.2754092,0.0
167,1643844229.2781184,0.0
168,1643844229.2808254,0.0001250038148136845
169,1643844229.2835329,0.0001250038148136845
170,1643844229.2862403,0.0001250038148136845
171,1643844229.2889497,0.0001250038148136845
172,1643844229.2916594,0.0001250038148136845
173,1643844229.294367,0.000250007629627369
174,1643844229.2970805,0.0001250038148136845
175,1643844229.2998018,0.0001250038148136845
176,1643844229.3025098,0.0001250038148136845
177,1643844229.3052177,0.0
178,1643844229.3079274,0.0001250038148136845
179,1643844229.3106487,0.0001250038148136845
180,1643844229.3133566,0.0001250038148136845
181,1643844229.316064,0.000250007629627369
182,1643844229.3187733,0.0001250038148136845
183,1643844229.3214772,0.0
184,1643844229.3241804,0.0001250038148136845
185,1643844229.3268864,0.0
186,1643844229.329598,0.0
187,1643844229.3323061,0.0
188,1643844229.3350136,0.0
189,1643844229.3377223,0.0
190,1643844229.3404305,0.0001250038148136845
191,1643844229.3432019,0.0
192,1643844229.3459268,0.0001250038148136845
193,1643844229.3486984,0.0001250038148136845
194,1643844229.351465,0.0
195,1643844229.3542278,-0.0001250038148136845
196,1643844229.3569953,-0.0001250038148136845
197,1643844229.3597593,0.0001250038148136845
198,1643844229.3625236,0.0
199,1643844229.365287,0.0001250038148136845
200,1643844229.368053,0.0
201,1643844229.3708155,0.0
202,1643844229.3735797,0.0
203,1643844229.3763456,0.0
204,1643844229.3791087,0.0
205,1643844229.3818707,-0.0001250038148136845
206,1643844229.3846338,0.0
207,1643844229.3873994,0.0
208,1643844229.3901615,0.0
209,1643844229.3929229,0.0
210,1643844229.3956866,0.0001250038148136845
211,1643844229.3984497,0.0001250038148136845
212,1643844229.4012136,0.0001250038148136845
213,1643844229.403976,0.0001250038148136845
214,1643844229.4067416,0.0001250038148136845
215,1643844229.4095032,0.000250007629627369
216,1643844229.4122653,0.00037501144444105353
217,1643844229.4150274,0.00037501144444105353
218,1643844229.4177928,0.00037501144444105353
219,1643844229.4205563,0.00037501144444105353
220,1643844229.423319,0.00037501144444105353
221,1643844229.4260812,0.00037501144444105353
222,1643844229.428843,0.000500015259254738
223,1643844229.4316056,0.00037501144444105353
224,1643844229.4343684,0.000500015259254738
225,1643844229.4371336,0.00037501144444105353
226,1643844229.4398968,0.000500015259254738
227,1643844229.4426594,0.0006250190740684225
228,1643844229.4455013,0.0006250190740684225
229,1643844229.4482844,0.000500015259254738
230,1643844229.4511206,0.000500015259254738
231,1643844229.4539535,0.000500015259254738
232,1643844229.4567916,0.00037501144444105353
233,1643844229.459625,0.000500015259254738
234,1643844229.462464,0.00037501144444105353
235,1643844229.4652982,0.00037501144444105353
236,1643844229.4681346,0.00037501144444105353
237,1643844229.470966,0.00037501144444105353
238,1643844229.473797,0.00037501144444105353
239,1643844229.476632,0.00037501144444105353
240,1643844229.4794624,0.00037501144444105353
241,1643844229.4822924,0.000500015259254738
242,1643844229.485123,0.00037501144444105353
243,1643844229.4879599,0.00037501144444105353
244,1643844229.4907925,0.000500015259254738
245,1643844229.4936242,0.000500015259254738
246,1643844229.496461,0.00037501144444105353
247,1643844229.4992929,0.000500015259254738
248,1643844229.5021234,0.00037501144444105353
249,1643844229.504954,0.00037501144444105353
250,1643844229.5077896,0.000500015259254738
251,1643844229.5106218,0.00037501144444105353
252,1643844229.5134535,0.0006250190740684225
253,1643844229.5163128,0.000500015259254738
254,1643844229.5191464,0.000500015259254738
255,1643844229.5219789,0.0006250190740684225
256,1643844229.5248108,0.000500015259254738
257,1643844229.5276456,0.000500015259254738
258,1643844229.5304768,0.0006250190740684225
259,1643844229.5333076,0.0006250190740684225
260,1643844229.5361388,0.0006250190740684225
261,1643844229.5389726,0.0006250190740684225
262,1643844229.5418482,0.000500015259254738
263,1643844229.5446842,0.000500015259254738
264,1643844229.5476298,0.000500015259254738
265,1643844229.5504634,0.00037501144444105353
266,1643844229.5532699,0.00037501144444105353
267,1643844229.556074,0.00037501144444105353
268,1643844229.5589082,0.00037501144444105353
269,1643844229.5617118,0.000500015259254738
270,1643844229.5645177,0.000500015259254738
271,1643844229.567324,0.00037501144444105353
272,1643844229.5701272,0.00037501144444105353
273,1643844229.572931,0.00037501144444105353
274,1643844229.5757332,0.00037501144444105353
275,1643844229.578539,0.000500015259254738
276,1643844229.5813425,0.00037501144444105353
277,1643844229.5841434,0.00037501144444105353
278,1643844229.5869486,0.000250007629627369
279,1643844229.5897532,0.000250007629627369
280,1643844229.5925777,0.00037501144444105353
281,1643844229.5953822,0.00037501144444105353
282,1643844229.5981886,0.00037501144444105353
283,1643844229.6009915,0.000250007629627369
284,1643844229.6037934,0.000250007629627369
285,1643844229.6065981,0.00037501144444105353
286,1643844229.609401,0.00037501144444105353
287,1643844229.612204,0.00037501144444105353
288,1643844229.6150064,0.00037501144444105353
289,1643844229.617813,0.00037501144444105353
290,1643844229.620615,0.0001250038148136845
291,1643844229.6234179,0.000250007629627369
292,1643844229.6262197,0.000250007629627369
293,1643844229.6290476,0.000250007629627369
294,1643844229.6318502,0.000250007629627369
295,1643844229.6346521,0.000250007629627369
296,1643844229.637458,0.0001250038148136845
297,1643844229.6402605,0.00037501144444105353
298,1643844229.6430614,0.000250007629627369
299,1643844229.6458635,0.000250007629627369
300,1643844229.6486933,0.000250007629627369
301,1643844229.6514983,0.0001250038148136845
302,1643844229.6543016,0.0001250038148136845
303,1643844229.6571074,0.000250007629627369
304,1643844229.6599114,0.000250007629627369
305,1643844229.6627135,0.00037501144444105353
306,1643844229.6655152,0.000250007629627369
307,1643844229.6683223,-0.0001250038148136845
308,1643844229.6711257,0.0
309,1643844229.6739283,0.0
310,1643844229.6767375,0.0
311,1643844229.679541,0.0
312,1643844229.6823485,0.0
313,1643844229.6851523,0.0
314,1643844229.6879587,0.0001250038148136845
315,1643844229.690763,0.0001250038148136845
316,1643844229.6935682,0.0001250038148136845
317,1643844229.696375,0.0
318,1643844229.699178,-0.0001250038148136845
319,1643844229.701982,0.0
320,1643844229.7047832,0.0001250038148136845
321,1643844229.7075891,0.0001250038148136845
322,1643844229.7103925,0.0001250038148136845
323,1643844229.7131937,-0.0001250038148136845
324,1643844229.7159975,-0.0001250038148136845
325,1643844229.7188067,0.0
326,1643844229.7216089,-0.0001250038148136845
327,1643844229.724412,0.0
328,1643844229.7272143,-0.0001250038148136845
329,1643844229.7300181,0.0
330,1643844229.7328193,0.0
331,1643844229.7356217,-0.0001250038148136845
332,1643844229.7384276,-0.0001250038148136845
333,1643844229.7412312,0.0
334,1643844229.744032,0.0
335,1643844229.7468379,0.0
336,1643844229.7496645,-0.00037501144444105353
337,1643844229.752469,-0.0001250038148136845
338,1643844229.7552722,-0.0001250038148136845
339,1643844229.7580793,0.0
340,1643844229.760882,-0.0001250038148136845
341,1643844229.7636847,0.0
342,1643844229.7664907,-0.000250007629627369
343,1643844229.769294,-0.0001250038148136845
344,1643844229.7720993,-0.0001250038148136845
345,1643844229.774903,-0.0001250038148136845
346,1643844229.7777104,-0.0001250038148136845
347,1643844229.7805145,-0.0001250038148136845
348,1643844229.7833178,0.0
349,1643844229.7861204,-0.0001250038148136845
350,1643844229.7889285,0.0
351,1643844229.7917304,-0.0001250038148136845
352,1643844229.7945335,0.0
353,1643844229.7973406,-0.0001250038148136845
354,1643844229.800144,-0.000250007629627369
355,1643844229.8029487,-0.000250007629627369
356,1643844229.8057537,-0.0001250038148136845
357,1643844229.8085597,0.0001250038148136845
358,1643844229.8113623,-0.0001250038148136845
359,1643844229.8141665,-0.0001250038148136845
360,1643844229.8169723,0.0
361,1643844229.8197746,-0.0001250038148136845
362,1643844229.8225784,-0.0001250038148136845
363,1643844229.8253806,0.0
364,1643844229.8281865,-0.000250007629627369
365,1643844229.8309832,-0.0001250038148136845
366,1643844229.8337781,-0.0001250038148136845
367,1643844229.8365755,-0.0001250038148136845
368,1643844229.8393807,-0.0001250038148136845
369,1643844229.8421845,-0.0001250038148136845
370,1643844229.8449874,-0.000250007629627369
371,1643844229.8477933,-0.000250007629627369
372,1643844229.8506196,-0.0001250038148136845
373,1643844229.8534245,-0.000250007629627369
374,1643844229.856228,-0.000250007629627369
375,1643844229.8590589,-0.0001250038148136845
376,1643844229.8618622,-0.0001250038148136845
377,1643844229.8646638,-0.000250007629627369
378,1643844229.8674705,-0.0001250038148136845
379,1643844229.870273,-0.000250007629627369
380,1643844229.8730748,-0.000250007629627369
381,1643844229.8759012,-0.0001250038148136845
382,1643844229.8787088,-0.0001250038148136845
383,1643844229.8815143,-0.0001250038148136845
384,1643844229.8843195,-0.0001250038148136845
385,1643844229.8871245,-0.0001250038148136845
386,1643844229.889929,-0.000250007629627369
387,1643844229.8927338,-0.000250007629627369
388,1643844229.8955367,-0.0001250038148136845
389,1643844229.8983665,-0.000250007629627369
390,1643844229.9011915,-0.000250007629627369
391,1643844229.903995,-0.000250007629627369
392,1643844229.906802,-0.000250007629627369
393,1643844229.9096057,-0.0001250038148136845
394,1643844229.9124088,-0.000250007629627369
395,1643844229.9152107,-0.000250007629627369
396,1643844229.918017,-0.000250007629627369
397,1643844229.9208198,-0.00037501144444105353
398,1643844229.9236214,-0.00037501144444105353
399,1643844229.9264271,-0.000250007629627369
400,1643844229.9292293,-0.00037501144444105353
401,1643844229.9320333,-0.000250007629627369
402,1643844229.934836,-0.00037501144444105353
403,1643844229.9376423,-0.00037501144444105353
404,1643844229.9404457,-0.000250007629627369
405,1643844229.9432492,-0.00037501144444105353
406,1643844229.9460526,-0.00037501144444105353
407,1643844229.9488556,-0.00037501144444105353
408,1643844229.9516826,-0.00037501144444105353
409,1643844229.954488,-0.000250007629627369
410,1643844229.9572942,-0.00037501144444105353
411,1643844229.960097,-0.000250007629627369
412,1643844229.9628994,-0.00037501144444105353
413,1643844229.9657032,-0.00037501144444105353
414,1643844229.9685106,-0.00037501144444105353
415,1643844229.9713137,-0.000500015259254738
416,1643844229.974117,-0.0001250038148136845
417,1643844229.976925,-0.000250007629627369
418,1643844229.9797301,-0.00037501144444105353
419,1643844229.9825323,-0.000250007629627369
420,1643844229.9853342,-0.00037501144444105353
421,1643844229.9881423,-0.00037501144444105353
422,1643844229.9909465,-0.00037501144444105353
423,1643844229.9937484,-0.000250007629627369
424,1643844229.9965568,-0.00037501144444105353
425,1643844229.9993603,-0.00037501144444105353
426,1643844230.002162,-0.00037501144444105353
427,1643844230.004967,-0.00037501144444105353
428,1643844230.0077739,-0.00037501144444105353
429,1643844230.0105767,-0.000500015259254738
430,1643844230.0133798,-0.00037501144444105353
431,1643844230.016183,-0.00037501144444105353
432,1643844230.0189884,-0.00037501144444105353
433,1643844230.0217896,-0.000500015259254738
434,1643844230.024592,-0.00037501144444105353
435,1643844230.0273976,-0.00037501144444105353
436,1643844230.0302002,-0.000250007629627369
437,1643844230.033002,-0.00037501144444105353
438,1643844230.0358033,-0.000500015259254738
439,1643844230.0386105,-0.0006250190740684225
440,1643844230.041413,-0.000500015259254738
441,1643844230.0442147,-0.000500015259254738
442,1643844230.047018,-0.00037501144444105353
443,1643844230.0498228,-0.000500015259254738
444,1643844230.0526488,-0.00037501144444105353
445,1643844230.0554543,-0.00037501144444105353
446,1643844230.0582612,-0.00037501144444105353
447,1643844230.061064,-0.000500015259254738
448,1643844230.0638666,-0.00037501144444105353
449,1643844230.0666723,-0.00037501144444105353
450,1643844230.0694747,-0.000500015259254738
451,1643844230.0722773,-0.00037501144444105353
452,1643844230.0750787,-0.00037501144444105353
453,1643844230.0778847,-0.00037501144444105353
454,1643844230.0806885,-0.00037501144444105353
455,1643844230.0834906,-0.000500015259254738
456,1643844230.086297,-0.000500015259254738
457,1643844230.0891006,-0.000500015259254738
458,1643844230.091903,-0.000500015259254738
459,1643844230.094705,-0.00037501144444105353
