,Time (s),Signal (V)
0,1645224548.9890742,-0.016875514999847407
1,1645224548.9974542,-0.016875514999847407
2,1645224549.000337,-0.016500503555406356
3,1645224549.003226,-0.0161254921109653
4,1645224549.0060728,-0.015500473036896879
5,1645224549.0089157,-0.015750480666524246
6,1645224549.0117538,-0.016000488296151617
7,1645224549.0145917,-0.01662550737022004
8,1645224549.0174584,-0.016500503555406356
9,1645224549.0202959,-0.016500503555406356
10,1645224549.023134,-0.016500503555406356
11,1645224549.0259688,-0.017000518814661095
12,1645224549.028803,-0.017625537888729517
13,1645224549.0316346,-0.01712552262947478
14,1645224549.0344667,0.014750450148014772
15,1645224549.0372994,0.26325803399761954
16,1645224549.0401316,0.4940150761436811
17,1645224549.0429692,0.429888119144261
18,1645224549.0458024,0.37376140629291665
19,1645224549.0486362,0.2653830988494522
20,1645224549.0514674,0.19775603503524888
21,1645224549.0543003,0.14775450910977508
22,1645224549.0571392,0.08250251777703177
23,1645224549.0599709,0.05337662892544328
24,1645224549.0628057,0.04337632374034853
25,1645224549.0656374,0.06900210577715385
26,1645224549.0684705,0.0773773613696707
27,1645224549.071302,0.07975243385113072
28,1645224549.0741343,0.07750236518448439
29,1645224549.0769672,0.07062715536973176
30,1645224549.0797977,0.06275191503646962
31,1645224549.0826352,0.050376537369914855
32,1645224549.085468,0.04612640766624958
33,1645224549.0882993,0.044626361888485365
34,1645224549.0911303,0.045501388592181155
35,1645224549.0939715,0.04425135044404431
36,1645224549.0968046,0.04425135044404431
37,1645224549.0996346,0.040376232184820095
38,1645224549.1024654,0.03187597277748955
39,1645224549.105419,0.02775084688863796
40,1645224549.1082535,0.02637580492568743
41,1645224549.111061,0.023375713370159
42,1645224549.1138704,0.015375469222083193
43,1645224549.1166725,0.011750358592486344
44,1645224549.1194746,0.009375286111026337
45,1645224549.122276,0.0072502212591937015
46,1645224549.1250792,0.0060001831110568565
47,1645224549.127881,0.004500137333292642
48,1645224549.1306825,0.0008750267036957915
49,1645224549.133488,-0.00037501144444105353
50,1645224549.1362915,-0.001250038148136845
51,1645224549.1390934,-0.0023750724814600053
52,1645224549.1418946,-0.003500106814783166
53,1645224549.1447,-0.005375164036988434
54,1645224549.1475046,-0.011375347148045289
55,1645224549.150308,-0.014500442518387403
56,1645224549.153113,-0.0177505417035432
57,1645224549.155915,-0.023750724814600055
58,1645224549.158719,-0.027375835444196906
59,1645224549.161521,-0.03112594988860744
60,1645224549.164327,-0.038751182592242195
61,1645224549.1671307,-0.04187627796258431
62,1645224549.1699321,-0.04450135807367168
63,1645224549.1727345,-0.04775145725882748
64,1645224549.1755378,-0.0492515030365917
65,1645224549.1783395,-0.04975151829584643
66,1645224549.1811404,-0.04887649159215064
67,1645224549.1839473,-0.048626483962523274
68,1645224549.1867492,-0.04850148014770959
69,1645224549.1895502,-0.03337601855525376
70,1645224549.1923552,-0.027875850703451645
71,1645224549.1951575,-0.025875789666432693
72,1645224549.197959,-0.02387572862941374
73,1645224549.200763,-0.023375713370159
74,1645224549.2035673,-0.02300070192571795
75,1645224549.206394,-0.02225067903683584
76,1645224549.2092226,-0.022750694296090578
77,1645224549.2120268,-0.022750694296090578
78,1645224549.2148604,-0.02200067140720847
79,1645224549.2176647,-0.02112564470351268
80,1645224549.2204666,-0.02025061799981689
81,1645224549.2232718,-0.018125553147984252
82,1645224549.2260737,-0.0177505417035432
83,1645224549.2288759,-0.01712552262947478
84,1645224549.2316763,-0.016000488296151617
85,1645224549.2344816,-0.01500045777764214
86,1645224549.237283,-0.014250434888760034
87,1645224549.2400854,-0.013125400555436872
88,1645224549.2428873,-0.013250404370250556
89,1645224549.2456913,-0.013375408185064242
90,1645224549.248494,-0.013625415814691611
91,1645224549.251296,-0.013625415814691611
92,1645224549.2541018,-0.013750419629505295
93,1645224549.2569034,-0.014500442518387403
94,1645224549.2597053,-0.015500473036896879
95,1645224549.2625103,-0.01662550737022004
96,1645224549.2653124,-0.01837556077761162
97,1645224549.2681153,-0.018750572222052675
98,1645224549.2709181,-0.019375591296121097
99,1645224549.2737243,-0.020125614185003204
100,1645224549.276527,-0.02112564470351268
101,1645224549.2793298,-0.021750663777581104
102,1645224549.2821305,-0.02250068666646321
103,1645224549.2849295,-0.02225067903683584
104,1645224549.287726,-0.02187566759239479
105,1645224549.2905207,-0.021375652333140052
106,1645224549.293319,-0.021500656147953736
107,1645224549.2961252,-0.021250648518326365
108,1645224549.298928,-0.02025061799981689
109,1645224549.3017306,-0.01950059511093478
110,1645224549.304537,-0.018500564592425304
111,1645224549.3073637,-0.01712552262947478
112,1645224549.3101695,-0.016875514999847407
113,1645224549.312973,-0.016500503555406356
114,1645224549.3157737,-0.016250495925778985
115,1645224549.3185754,-0.014875453962828456
116,1645224549.3213773,-0.014250434888760034
117,1645224549.324182,-0.013625415814691611
118,1645224549.3269832,-0.014125431073946348
119,1645224549.329785,-0.014500442518387403
120,1645224549.3325877,-0.014875453962828456
121,1645224549.3353891,-0.01500045777764214
122,1645224549.338191,-0.01500045777764214
123,1645224549.340993,-0.015125461592455824
124,1645224549.3437974,-0.016750511185033724
125,1645224549.3465996,-0.01750053407391583
126,1645224549.349401,-0.018250556962797936
127,1645224549.352208,-0.018750572222052675
128,1645224549.355036,-0.019000579851680043
129,1645224549.3578382,-0.01912558366649373
130,1645224549.3606389,-0.02050062562944426
131,1645224549.3634448,-0.021000640888698997
132,1645224549.3662467,-0.021250648518326365
133,1645224549.3690488,-0.020875637073885314
134,1645224549.3718503,-0.020375621814630575
135,1645224549.3746784,-0.02000061037018952
136,1645224549.37748,-0.020125614185003204
137,1645224549.380282,-0.019875606555375836
138,1645224549.383084,-0.019750602740562152
139,1645224549.385886,-0.018500564592425304
140,1645224549.3886871,-0.01750053407391583
141,1645224549.3914888,-0.016875514999847407
142,1645224549.3942935,-0.016875514999847407
143,1645224549.397097,-0.016750511185033724
144,1645224549.399901,-0.01662550737022004
145,1645224549.4027028,-0.015750480666524246
146,1645224549.4055042,-0.015125461592455824
147,1645224549.4083304,-0.014875453962828456
148,1645224549.411134,-0.015625476851710562
149,1645224549.4139416,-0.016000488296151617
150,1645224549.4167454,-0.0161254921109653
151,1645224549.4195466,-0.016000488296151617
152,1645224549.4223492,-0.01587548448133793
153,1645224549.4251528,-0.0161254921109653
154,1645224549.4279544,-0.017375530259102146
155,1645224549.430756,-0.018125553147984252
156,1645224549.4335613,-0.018500564592425304
157,1645224549.4363625,-0.01887557603686636
158,1645224549.4391637,-0.01862556840723899
159,1645224549.441965,-0.019000579851680043
160,1645224549.4447699,-0.019875606555375836
161,1645224549.4475713,-0.02025061799981689
162,1645224549.4503732,-0.020125614185003204
163,1645224549.453175,-0.01950059511093478
164,1645224549.4559772,-0.01887557603686636
165,1645224549.4587784,-0.018750572222052675
166,1645224549.4615803,-0.01887557603686636
167,1645224549.4643843,-0.018750572222052675
168,1645224549.4671855,-0.018250556962797936
169,1645224549.4699862,-0.01712552262947478
170,1645224549.4727893,-0.01637549974059267
171,1645224549.4755907,-0.01637549974059267
172,1645224549.478391,-0.0177505417035432
173,1645224549.481192,-0.0322509842219306
174,1645224549.4840024,-0.0322509842219306
175,1645224549.4868045,-0.019750602740562152
176,1645224549.4896061,-0.019875606555375836
177,1645224549.4924288,-0.016000488296151617
178,1645224549.4952307,-0.03150096133304849
179,1645224549.4980319,-0.06812707907345805
180,1645224549.5008342,-0.047876461073641165
181,1645224549.5036411,0.34551054414502397
182,1645224549.5064445,0.5637672048097171
183,1645224549.50927,0.5916430555131688
184,1645224549.5120752,0.45788897366252634
185,1645224549.5149012,0.3870118106631672
186,1645224549.5177045,0.31150950651570175
187,1645224549.520507,0.19188085573900573
188,1645224549.523312,0.15600476088747825
189,1645224549.5261145,0.12400378429517503
190,1645224549.5289173,0.10337815485091709
191,1645224549.5317187,0.11925363933225502
192,1645224549.5345244,0.13450410473952454
193,1645224549.5373275,0.1418793298135319
194,1645224549.540128,0.13900424207281717
195,1645224549.542932,0.13300405896176032
196,1645224549.5457351,0.11950364696188238
197,1645224549.548537,0.11362846766563921
198,1645224549.5513391,0.10812829981383709
199,1645224549.5541453,0.09900302133243813
200,1645224549.5569472,0.0967529526657918
201,1645224549.559749,0.093502853480636
202,1645224549.5625534,0.08212750633259072
203,1645224549.5653563,0.07512729270302439
204,1645224549.5681577,0.06900210577715385
205,1645224549.5709593,0.05987682729575488
206,1645224549.5737653,0.056251716666158025
207,1645224549.5765674,0.05137656788842433
208,1645224549.579368,0.03812616351817377
209,1645224549.5821698,0.031250953703421125
210,1645224549.5849724,0.025625782036805326
211,1645224549.5877738,0.01712552262947478
212,1645224549.590574,0.013750419629505295
213,1645224549.5933785,0.01000030518509476
214,1645224549.596179,0.0013750419629505295
215,1645224549.5989792,-0.003250099185155797
216,1645224549.6017807,-0.00750022888882107
217,1645224549.6045856,-0.01525046540726951
218,1645224549.607388,-0.01912558366649373
219,1645224549.610213,-0.023250709555345316
220,1645224549.6130192,-0.03237598803674429
221,1645224549.6158211,-0.03687612537003693
222,1645224549.618623,-0.04075124362926115
223,1645224549.6214247,-0.047126438184759055
224,1645224549.6242301,-0.04975151829584643
225,1645224549.6270313,-0.052251594592120115
226,1645224549.6298342,-0.056126712851344344
227,1645224549.6326375,-0.05750175481429487
228,1645224549.635439,-0.05825177770317698
229,1645224549.6382406,-0.05925180822168646
230,1645224549.6410434,-0.05987682729575488
231,1645224549.6438475,-0.05437665944395276
232,1645224549.6466491,-0.03275099948118534
233,1645224549.6494527,-0.025875789666432693
234,1645224549.6522627,-0.02287569811090426
235,1645224549.6550655,-0.020125614185003204
236,1645224549.6578686,-0.02075063325907163
237,1645224549.6606693,-0.02162565996276742
238,1645224549.6634753,-0.02300070192571795
239,1645224549.6662776,-0.023250709555345316
240,1645224549.6690788,-0.023375713370159
241,1645224549.6718802,-0.023250709555345316
242,1645224549.674687,-0.023375713370159
243,1645224549.6774876,-0.02362572099978637
244,1645224549.6802893,-0.02362572099978637
245,1645224549.683094,-0.022750694296090578
246,1645224549.685896,-0.02187566759239479
247,1645224549.688698,-0.019875606555375836
248,1645224549.6915014,-0.01912558366649373
249,1645224549.6943066,-0.018750572222052675
250,1645224549.6971087,-0.017625537888729517
251,1645224549.6999106,-0.016750511185033724
252,1645224549.7027133,-0.01587548448133793
253,1645224549.705514,-0.014125431073946348
254,1645224549.7083151,-0.014000427259132664
255,1645224549.7111397,-0.014125431073946348
256,1645224549.7139473,-0.014500442518387403
257,1645224549.7167497,-0.014375438703573717
258,1645224549.719551,-0.014375438703573717
259,1645224549.7223535,-0.014500442518387403
260,1645224549.7251546,-0.01525046540726951
261,1645224549.727957,-0.016250495925778985
262,1645224549.7307806,-0.0177505417035432
263,1645224549.7335856,-0.018250556962797936
264,1645224549.7363865,-0.01862556840723899
265,1645224549.7391875,-0.01912558366649373
266,1645224549.741989,-0.020125614185003204
267,1645224549.7447934,-0.021000640888698997
268,1645224549.747595,-0.02225067903683584
269,1645224549.7503963,-0.02225067903683584
270,1645224549.7532005,-0.022375682851649526
271,1645224549.7560022,-0.02162565996276742
272,1645224549.7588034,-0.021750663777581104
273,1645224549.7616043,-0.02187566759239479
274,1645224549.7644093,-0.02162565996276742
275,1645224549.7672102,-0.02050062562944426
276,1645224549.7700112,-0.019750602740562152
277,1645224549.772814,-0.018750572222052675
278,1645224549.7756355,-0.017875545518356885
279,1645224549.7784395,-0.017625537888729517
280,1645224549.781241,-0.01750053407391583
281,1645224549.7840455,-0.01637549974059267
282,1645224549.7868478,-0.01587548448133793
283,1645224549.7896492,-0.015125461592455824
284,1645224549.7924519,-0.01500045777764214
285,1645224549.795248,-0.015375469222083193
286,1645224549.798041,-0.015750480666524246
287,1645224549.800835,-0.01587548448133793
288,1645224549.8036327,-0.016000488296151617
289,1645224549.8064365,-0.014250434888760034
290,1645224549.8092399,-0.016875514999847407
291,1645224549.812066,-0.0177505417035432
292,1645224549.8148928,-0.018500564592425304
293,1645224549.817696,-0.019000579851680043
294,1645224549.8204968,-0.019250587481307414
295,1645224549.8233025,-0.01912558366649373
296,1645224549.8261042,-0.020125614185003204
297,1645224549.8289058,-0.020625629444257942
298,1645224549.8317075,-0.021250648518326365
299,1645224549.8345118,-0.021000640888698997
300,1645224549.8373137,-0.02075063325907163
301,1645224549.8401144,-0.020125614185003204
302,1645224549.8429177,-0.020125614185003204
303,1645224549.8457184,-0.02025061799981689
304,1645224549.848519,-0.020375621814630575
305,1645224549.8513203,-0.01912558366649373
306,1645224549.8541245,-0.01862556840723899
307,1645224549.8569262,-0.017625537888729517
308,1645224549.859727,-0.017375530259102146
309,1645224549.8625298,-0.017250526444288462
310,1645224549.865333,-0.017250526444288462
311,1645224549.8681347,-0.01637549974059267
312,1645224549.8709354,-0.016000488296151617
313,1645224549.87374,-0.015500473036896879
314,1645224549.8765416,-0.0161254921109653
315,1645224549.8793426,-0.016500503555406356
316,1645224549.8821437,-0.016875514999847407
317,1645224549.8849463,-0.016750511185033724
318,1645224549.8877473,-0.016750511185033724
319,1645224549.8905497,-0.01662550737022004
320,1645224549.893356,-0.017875545518356885
321,1645224549.8961587,-0.01862556840723899
322,1645224549.8989592,-0.019250587481307414
323,1645224549.9017603,-0.01912558366649373
324,1645224549.9045644,-0.01912558366649373
325,1645224549.9073665,-0.01887557603686636
326,1645224549.9101675,-0.019750602740562152
327,1645224549.9129922,-0.020125614185003204
328,1645224549.915797,-0.02025061799981689
329,1645224549.918599,-0.019625598925748465
330,1645224549.9214003,-0.019250587481307414
331,1645224549.924206,-0.018750572222052675
332,1645224549.927007,-0.019000579851680043
333,1645224549.9298084,-0.01912558366649373
334,1645224549.9326115,-0.019000579851680043
335,1645224549.9354057,-0.01800054933317057
336,1645224549.9382012,-0.017375530259102146
337,1645224549.9409962,-0.016750511185033724
338,1645224549.9437954,-0.017000518814661095
339,1645224549.946605,-0.01712552262947478
340,1645224549.9494095,-0.017250526444288462
341,1645224549.9522119,-0.016750511185033724
342,1645224549.9550416,-0.016500503555406356
343,1645224549.957845,-0.016250495925778985
344,1645224549.960647,-0.017375530259102146
345,1645224549.9634519,-0.018125553147984252
346,1645224549.966254,-0.018500564592425304
347,1645224549.9690557,-0.01837556077761162
348,1645224549.9718559,-0.017625537888729517
349,1645224549.974661,0.004500137333292642
350,1645224549.9774628,0.5312662129581591
351,1645224549.9802625,0.6043934446241646
352,1645224549.9830654,0.546391674550615
353,1645224549.985867,0.40863747062593464
354,1645224549.9886672,0.33613525803399763
355,1645224549.9914696,0.2562578203680532
356,1645224549.9942744,0.142629352702414
357,1645224549.997076,0.09887801751762444
358,1645224549.999877,0.060376842555009615
359,1645224550.002678,0.04587640003662221
360,1645224550.005479,0.0588767967772454
361,1645224550.0082808,0.06787707144383069
362,1645224550.0110807,0.07137717825861385
363,1645224550.0139115,0.06875209814752647
364,1645224550.0167172,0.0628769188512833
365,1645224550.0195196,0.04737644581438642
366,1645224550.0223212,0.03987621692556536
367,1645224550.025123,0.03337601855525376
368,1645224550.0279238,0.029250892666402174
369,1645224550.0307255,0.03000091555528428
370,1645224550.0335293,0.02962590411084323
371,1645224550.0363302,0.02162565996276742
372,1645224550.0391295,0.016875514999847407
373,1645224550.0419304,0.012875392925809505
374,1645224550.0447342,0.010500320444349499
375,1645224550.047534,0.01025031281472213
376,1645224550.0503337,0.0088752708517716
377,1645224550.0531368,0.0013750419629505295
378,1645224550.0559387,-0.002125064851832637
379,1645224550.0587618,-0.004500137333292642
380,1645224550.061567,-0.005750175481429487
381,1645224550.0643742,-0.0056251716666158025
382,1645224550.067177,-0.005875179296243172
383,1645224550.0699806,-0.0088752708517716
384,1645224550.0727837,-0.01025031281472213
385,1645224550.0755844,-0.011250343333231605
386,1645224550.078388,-0.011750358592486344
387,1645224550.0811896,-0.011500350962858974
388,1645224550.0839953,-0.011625354777672658
389,1645224550.0868201,-0.014750450148014772
390,1645224550.08964,-0.01662550737022004
391,1645224550.0924437,-0.01887557603686636
392,1645224550.095246,-0.02225067903683584
393,1645224550.0980468,-0.02362572099978637
394,1645224550.1008477,-0.024750755333109532
395,1645224550.1036499,-0.028375865962706383
396,1645224550.106452,-0.03050093081453902
397,1645224550.1092532,-0.03325101474044008
398,1645224550.1120532,-0.03737614062929166
399,1645224550.114907,-0.03850117496261483
400,1645224550.1177118,-0.038751182592242195
401,1645224550.1205137,-0.03825116733298746
402,1645224550.1233184,-0.03862617877742851
403,1645224550.1261196,-0.04000122074037904
404,1645224550.1289208,-0.03862617877742851
405,1645224550.1317217,-0.03412604144413587
406,1645224550.1345267,-0.03050093081453902
407,1645224550.137328,-0.026625812555314796
408,1645224550.1401284,-0.023500717184972687
409,1645224550.1429312,-0.02250068666646321
410,1645224550.145732,-0.02225067903683584
411,1645224550.1485338,-0.02200067140720847
412,1645224550.1513338,-0.021375652333140052
413,1645224550.1541388,-0.02000061037018952
414,1645224550.1569421,-0.019250587481307414
415,1645224550.159743,-0.01912558366649373
416,1645224550.1625462,-0.01887557603686636
417,1645224550.1653485,-0.01862556840723899
418,1645224550.1681495,-0.0177505417035432
419,1645224550.1709502,-0.0161254921109653
420,1645224550.1737552,-0.015500473036896879
421,1645224550.176555,-0.015625476851710562
422,1645224550.1793556,-0.015625476851710562
423,1645224550.182158,-0.015750480666524246
424,1645224550.1849608,-0.015375469222083193
425,1645224550.1877625,-0.01525046540726951
426,1645224550.1905637,-0.01500045777764214
427,1645224550.1933692,-0.015750480666524246
428,1645224550.196172,-0.016500503555406356
429,1645224550.1989753,-0.0177505417035432
430,1645224550.201777,-0.017875545518356885
431,1645224550.204583,-0.018250556962797936
432,1645224550.2073874,-0.01862556840723899
433,1645224550.210189,-0.01950059511093478
434,1645224550.2129912,-0.02050062562944426
435,1645224550.2158144,-0.021500656147953736
436,1645224550.2186186,-0.02162565996276742
437,1645224550.2214196,-0.021500656147953736
438,1645224550.224225,-0.02112564470351268
439,1645224550.2270246,-0.021250648518326365
440,1645224550.229826,-0.021500656147953736
441,1645224550.2326293,-0.021250648518326365
442,1645224550.2354312,-0.02050062562944426
443,1645224550.2382324,-0.02000061037018952
444,1645224550.2410333,-0.018750572222052675
445,1645224550.2438383,-0.018750572222052675
446,1645224550.24664,-0.018500564592425304
447,1645224550.2494407,-0.017875545518356885
448,1645224550.2522626,-0.017000518814661095
449,1645224550.2550654,-0.01637549974059267
450,1645224550.2578669,-0.015500473036896879
451,1645224550.260667,-0.015750480666524246
452,1645224550.2634716,-0.01587548448133793
453,1645224550.2662725,-0.0161254921109653
454,1645224550.2690732,-0.016000488296151617
455,1645224550.2718735,-0.015750480666524246
456,1645224550.2746785,-0.016000488296151617
