,Time (s),Signal (V)
0,1643745064.3846385,0.002000061037018952
1,1643745064.3937113,0.002125064851832637
2,1643745064.397942,0.002000061037018952
3,1643745064.40215,0.001750053407391583
4,1643745064.4063706,0.0016250495925778986
5,1643745064.4105792,0.0013750419629505295
6,1643745064.4147894,0.0015000457777642141
7,1643745064.4190147,0.001750053407391583
8,1643745064.4232223,0.002000061037018952
9,1643745064.4274302,0.0018750572222052675
10,1643745064.4316378,0.002125064851832637
11,1643745064.4358525,0.0018750572222052675
12,1643745064.4400585,0.0018750572222052675
13,1643745064.4442635,0.0018750572222052675
14,1643745064.4484699,0.0018750572222052675
15,1643745064.4526763,0.001750053407391583
16,1643745064.4568846,0.0018750572222052675
17,1643745064.4610953,0.0016250495925778986
18,1643745064.4653046,0.0013750419629505295
19,1643745064.469512,0.0015000457777642141
20,1643745064.4737208,0.001750053407391583
21,1643745064.4779274,0.0018750572222052675
22,1643745064.482134,0.002000061037018952
23,1643745064.48634,0.002000061037018952
24,1643745064.4905477,0.0018750572222052675
25,1643745064.4947507,0.0016250495925778986
26,1643745064.4989536,0.001750053407391583
27,1643745064.5031593,0.0018750572222052675
28,1643745064.5073726,0.0018750572222052675
29,1643745064.511582,0.001750053407391583
30,1643745064.515789,0.001750053407391583
31,1643745064.5199924,0.0015000457777642141
32,1643745064.5241957,0.0015000457777642141
33,1643745064.5283997,0.001750053407391583
34,1643745064.5326035,0.002000061037018952
35,1643745064.5368083,0.002000061037018952
36,1643745064.5410128,0.002000061037018952
37,1643745064.545217,0.002000061037018952
38,1643745064.5494204,0.002000061037018952
39,1643745064.553623,0.002000061037018952
40,1643745064.5578258,0.002250068666646321
41,1643745064.5620303,0.002000061037018952
42,1643745064.566238,0.0018750572222052675
43,1643745064.5704455,0.001750053407391583
44,1643745064.5746517,0.0016250495925778986
45,1643745064.578857,0.0016250495925778986
46,1643745064.5830643,0.002000061037018952
47,1643745064.5872715,0.002125064851832637
48,1643745064.5914788,0.002250068666646321
49,1643745064.5956821,0.002250068666646321
50,1643745064.5998845,0.002125064851832637
51,1643745064.604087,0.002000061037018952
52,1643745064.6082916,0.002125064851832637
53,1643745064.6124954,0.002250068666646321
54,1643745064.6166992,0.002125064851832637
55,1643745064.6209013,0.002000061037018952
56,1643745064.625105,0.001750053407391583
57,1643745064.6293075,0.0016250495925778986
58,1643745064.6335132,0.0015000457777642141
59,1643745064.6377215,0.001750053407391583
60,1643745064.6419294,0.0018750572222052675
61,1643745064.6462061,0.002000061037018952
62,1643745064.6504362,0.002000061037018952
63,1643745064.6547134,0.0018750572222052675
64,1643745064.6589887,0.0016250495925778986
65,1643745064.6632614,0.0016250495925778986
66,1643745064.6675758,0.001750053407391583
67,1643745064.6718502,0.001750053407391583
68,1643745064.6761262,0.002000061037018952
69,1643745064.680399,0.0018750572222052675
70,1643745064.6846735,0.001750053407391583
71,1643745064.6889443,0.0016250495925778986
72,1643745064.6932185,0.001750053407391583
73,1643745064.6975007,0.0018750572222052675
74,1643745064.701775,0.0018750572222052675
75,1643745064.7060485,0.0018750572222052675
76,1643745064.7103295,0.0018750572222052675
77,1643745064.7146022,0.001750053407391583
78,1643745064.7188728,0.0018750572222052675
79,1643745064.7231445,0.002000061037018952
80,1643745064.7274158,0.0016250495925778986
81,1643745064.7316895,0.001750053407391583
82,1643745064.7359655,0.0015000457777642141
83,1643745064.7402384,0.0013750419629505295
84,1643745064.7445369,0.0013750419629505295
85,1643745064.7488976,0.0016250495925778986
86,1643745064.753184,0.002000061037018952
87,1643745064.7575085,0.002000061037018952
88,1643745064.7618291,0.002000061037018952
89,1643745064.766152,0.001750053407391583
90,1643745064.770472,0.0016250495925778986
91,1643745064.7747989,0.0018750572222052675
92,1643745064.7791197,0.0018750572222052675
93,1643745064.7834408,0.002000061037018952
94,1643745064.7877636,0.002000061037018952
95,1643745064.7920833,0.0018750572222052675
96,1643745064.7964056,0.0016250495925778986
97,1643745064.8007293,0.001750053407391583
98,1643745064.805059,0.002125064851832637
99,1643745064.8093898,0.002250068666646321
100,1643745064.8137233,0.00250007629627369
101,1643745064.8180513,0.00250007629627369
102,1643745064.82238,0.00250007629627369
103,1643745064.8267074,0.0023750724814600053
104,1643745064.8310392,0.0026250801110873747
105,1643745064.8353672,0.00250007629627369
106,1643745064.8397043,0.0023750724814600053
107,1643745064.84406,0.0023750724814600053
108,1643745064.8484168,0.0023750724814600053
109,1643745064.8527346,0.002125064851832637
110,1643745064.8570337,0.0023750724814600053
111,1643745064.8613274,0.0026250801110873747
112,1643745064.8656254,0.0028750877407147436
113,1643745064.8699183,0.0026250801110873747
114,1643745064.8742125,0.0026250801110873747
115,1643745064.8785093,0.0023750724814600053
116,1643745064.8828025,0.00250007629627369
117,1643745064.8870962,0.00250007629627369
118,1643745064.891388,0.00250007629627369
119,1643745064.89568,0.00250007629627369
120,1643745064.8999712,0.0023750724814600053
121,1643745064.904264,0.002125064851832637
122,1643745064.908561,0.002125064851832637
123,1643745064.9128535,0.0023750724814600053
124,1643745064.917147,0.0026250801110873747
125,1643745064.9214425,0.002750083925901059
126,1643745064.9257445,0.002750083925901059
127,1643745064.9300506,0.0026250801110873747
128,1643745064.9343529,0.0023750724814600053
129,1643745064.938653,0.002250068666646321
130,1643745064.9429574,0.0023750724814600053
131,1643745064.9472613,0.0023750724814600053
132,1643745064.9515915,0.002250068666646321
133,1643745064.955894,0.0023750724814600053
134,1643745064.960215,0.002000061037018952
135,1643745064.964573,0.002000061037018952
136,1643745064.9688928,0.002000061037018952
137,1643745064.9732146,0.002250068666646321
138,1643745064.9775374,0.002250068666646321
139,1643745064.9818614,0.0023750724814600053
140,1643745064.9861925,0.00250007629627369
141,1643745064.9905272,0.002125064851832637
142,1643745064.994858,0.002125064851832637
143,1643745064.999188,0.002125064851832637
144,1643745065.0035229,0.002125064851832637
145,1643745065.007856,0.002000061037018952
146,1643745065.0121796,0.0018750572222052675
147,1643745065.016503,0.001750053407391583
148,1643745065.0208254,0.0018750572222052675
149,1643745065.025217,0.002125064851832637
150,1643745065.0295525,0.002250068666646321
151,1643745065.0338757,0.00250007629627369
152,1643745065.0382,0.0026250801110873747
153,1643745065.04252,0.0026250801110873747
154,1643745065.0468464,0.0023750724814600053
155,1643745065.0512993,0.0026250801110873747
156,1643745065.0556273,0.003250099185155797
157,1643745065.0599256,0.0026250801110873747
158,1643745065.0642333,0.00250007629627369
159,1643745065.068544,0.00250007629627369
160,1643745065.0728524,0.003250099185155797
161,1643745065.0773444,0.00250007629627369
162,1643745065.0816536,0.002750083925901059
163,1643745065.0859547,0.0028750877407147436
164,1643745065.0902584,0.0028750877407147436
165,1643745065.0945938,0.004000122074037904
166,1643745065.0989382,0.0028750877407147436
167,1643745065.1032348,0.002750083925901059
168,1643745065.1075306,0.002750083925901059
169,1643745065.111822,0.0028750877407147436
170,1643745065.1161158,0.004000122074037904
171,1643745065.1204352,0.002750083925901059
172,1643745065.1248732,0.0026250801110873747
173,1643745065.1293077,0.00250007629627369
174,1643745065.13375,0.00250007629627369
175,1643745065.1381962,0.0036251106295968507
176,1643745065.1426432,0.0030000915555284282
177,1643745065.147086,0.0030000915555284282
178,1643745065.1515586,0.0028750877407147436
179,1643745065.1560006,0.002750083925901059
180,1643745065.1604447,0.003750114444410535
181,1643745065.1648781,0.002750083925901059
182,1643745065.1693091,0.002750083925901059
183,1643745065.173744,0.0026250801110873747
184,1643745065.1781838,0.003750114444410535
185,1643745065.1826303,0.002125064851832637
186,1643745065.1871185,0.002250068666646321
187,1643745065.1915655,0.0023750724814600053
188,1643745065.1960044,0.0026250801110873747
189,1643745065.2004488,0.0036251106295968507
190,1643745065.2048864,0.00250007629627369
191,1643745065.209325,0.0023750724814600053
192,1643745065.2137668,0.002250068666646321
193,1643745065.2182045,0.002250068666646321
194,1643745065.2226446,0.003500106814783166
195,1643745065.2270813,0.002250068666646321
196,1643745065.2315218,0.002125064851832637
197,1643745065.2359593,0.002000061037018952
198,1643745065.2404006,0.0026250801110873747
199,1643745065.2448385,0.0023750724814600053
200,1643745065.2492695,0.002250068666646321
201,1643745065.2538483,0.0023750724814600053
202,1643745065.258291,0.00250007629627369
203,1643745065.2627292,0.0036251106295968507
204,1643745065.2674382,0.002750083925901059
205,1643745065.2718856,0.0023750724814600053
206,1643745065.276333,0.00250007629627369
207,1643745065.2807834,0.0023750724814600053
208,1643745065.2852418,0.008125247962889492
209,1643745065.2897816,0.0026250801110873747
210,1643745065.2942367,0.002125064851832637
211,1643745065.2986755,0.002250068666646321
212,1643745065.3031132,0.0023750724814600053
213,1643745065.3075545,0.0030000915555284282
214,1643745065.3119986,0.002750083925901059
215,1643745065.316436,0.002750083925901059
216,1643745065.3208735,0.00250007629627369
217,1643745065.3253152,0.0026250801110873747
218,1643745065.329752,0.0023750724814600053
219,1643745065.334195,0.002250068666646321
220,1643745065.3386319,0.0023750724814600053
221,1643745065.3430705,0.002250068666646321
222,1643745065.3475082,0.0028750877407147436
223,1643745065.3519475,0.002000061037018952
224,1643745065.3565323,0.002250068666646321
225,1643745065.360983,0.0026250801110873747
226,1643745065.365425,0.0026250801110873747
227,1643745065.3698618,0.0026250801110873747
228,1643745065.374304,0.0023750724814600053
229,1643745065.378744,0.002125064851832637
230,1643745065.3831847,0.002125064851832637
231,1643745065.387622,0.0026250801110873747
232,1643745065.3920608,0.00250007629627369
233,1643745065.3965015,0.0023750724814600053
234,1643745065.400946,0.002250068666646321
235,1643745065.4053845,0.002125064851832637
236,1643745065.40982,0.0026250801110873747
237,1643745065.4142623,0.00250007629627369
238,1643745065.4187005,0.0026250801110873747
239,1643745065.4231424,0.002750083925901059
240,1643745065.4275784,0.0026250801110873747
241,1643745065.4320173,0.0028750877407147436
242,1643745065.4364586,0.00250007629627369
243,1643745065.4409003,0.0026250801110873747
244,1643745065.4453442,0.0026250801110873747
245,1643745065.449794,0.0026250801110873747
246,1643745065.4542441,0.0023750724814600053
247,1643745065.4588294,0.002250068666646321
248,1643745065.463274,0.002250068666646321
249,1643745065.467715,0.0023750724814600053
250,1643745065.4721608,0.0026250801110873747
251,1643745065.476601,0.0026250801110873747
252,1643745065.4810517,0.0026250801110873747
253,1643745065.4857118,0.0023750724814600053
254,1643745065.4901545,0.002125064851832637
255,1643745065.4946117,0.0026250801110873747
256,1643745065.4991553,0.00250007629627369
257,1643745065.503608,0.0023750724814600053
258,1643745065.5082002,0.00250007629627369
259,1643745065.5126727,0.002125064851832637
260,1643745065.5171113,0.002000061037018952
261,1643745065.5215445,0.002250068666646321
262,1643745065.5259783,0.00250007629627369
263,1643745065.5304081,0.0026250801110873747
264,1643745065.5348415,0.0026250801110873747
265,1643745065.5392735,0.00250007629627369
266,1643745065.5437112,0.002250068666646321
267,1643745065.54816,0.0023750724814600053
268,1643745065.5526,0.0023750724814600053
269,1643745065.5570483,0.0023750724814600053
270,1643745065.5616517,0.002250068666646321
271,1643745065.5661001,0.002250068666646321
272,1643745065.5705435,0.002000061037018952
273,1643745065.574984,0.002000061037018952
274,1643745065.5794275,0.002250068666646321
275,1643745065.5838633,0.00250007629627369
276,1643745065.588297,0.00250007629627369
277,1643745065.5927317,0.0023750724814600053
278,1643745065.5971658,0.0023750724814600053
279,1643745065.601599,0.002250068666646321
280,1643745065.6060345,0.00250007629627369
281,1643745065.6104736,0.0023750724814600053
282,1643745065.6149158,0.0023750724814600053
283,1643745065.619354,0.002250068666646321
284,1643745065.6237981,0.002250068666646321
285,1643745065.6282384,0.002125064851832637
286,1643745065.6326761,0.0023750724814600053
287,1643745065.6371138,0.00250007629627369
288,1643745065.6415575,0.002750083925901059
289,1643745065.6459954,0.002750083925901059
290,1643745065.6504395,0.002750083925901059
291,1643745065.6548777,0.00250007629627369
292,1643745065.659314,0.0023750724814600053
293,1643745065.663896,0.00250007629627369
294,1643745065.668339,0.0026250801110873747
295,1643745065.672775,0.00250007629627369
296,1643745065.6772075,0.0023750724814600053
297,1643745065.6816387,0.002125064851832637
298,1643745065.6860778,0.002125064851832637
299,1643745065.6905148,0.002250068666646321
300,1643745065.6949544,0.00250007629627369
301,1643745065.6993895,0.0026250801110873747
302,1643745065.7038274,0.0026250801110873747
303,1643745065.7082603,0.0023750724814600053
304,1643745065.7126896,0.002250068666646321
305,1643745065.7171226,0.002250068666646321
306,1643745065.721557,0.0023750724814600053
307,1643745065.7259908,0.0023750724814600053
308,1643745065.7304344,0.0023750724814600053
309,1643745065.7348764,0.002250068666646321
310,1643745065.7393415,0.002000061037018952
311,1643745065.743777,0.002125064851832637
312,1643745065.7482092,0.00250007629627369
313,1643745065.7526393,0.0026250801110873747
314,1643745065.7570722,0.002750083925901059
315,1643745065.7615097,0.0026250801110873747
316,1643745065.7660964,0.00250007629627369
317,1643745065.770548,0.0026250801110873747
318,1643745065.7749913,0.002750083925901059
319,1643745065.7794325,0.0026250801110873747
320,1643745065.783875,0.0026250801110873747
321,1643745065.788315,0.0023750724814600053
322,1643745065.7927554,0.002250068666646321
323,1643745065.7971969,0.0023750724814600053
324,1643745065.8016388,0.0026250801110873747
325,1643745065.8060787,0.002750083925901059
326,1643745065.8105216,0.002750083925901059
327,1643745065.8149657,0.002750083925901059
328,1643745065.8194108,0.00250007629627369
329,1643745065.8238568,0.0026250801110873747
330,1643745065.828297,0.002750083925901059
331,1643745065.8327386,0.002750083925901059
332,1643745065.8371787,0.002750083925901059
333,1643745065.8416207,0.0026250801110873747
334,1643745065.8460686,0.00250007629627369
335,1643745065.8505266,0.0023750724814600053
336,1643745065.8549714,0.0026250801110873747
337,1643745065.8594062,0.002750083925901059
338,1643745065.8638377,0.0028750877407147436
339,1643745065.8684175,0.0028750877407147436
340,1643745065.872861,0.0026250801110873747
341,1643745065.8772984,0.00250007629627369
342,1643745065.8817327,0.0026250801110873747
343,1643745065.8861678,0.0026250801110873747
344,1643745065.8906038,0.002750083925901059
345,1643745065.8950367,0.0026250801110873747
346,1643745065.8994665,0.00250007629627369
347,1643745065.903897,0.00250007629627369
348,1643745065.9083312,0.00250007629627369
349,1643745065.9127672,0.0026250801110873747
350,1643745065.9172077,0.0028750877407147436
351,1643745065.921651,0.0028750877407147436
352,1643745065.9260914,0.0030000915555284282
353,1643745065.9305348,0.0028750877407147436
354,1643745065.9349732,0.002750083925901059
355,1643745065.9394152,0.0028750877407147436
356,1643745065.9438562,0.0028750877407147436
357,1643745065.9483557,0.0026250801110873747
358,1643745065.9528053,0.0026250801110873747
359,1643745065.957247,0.0023750724814600053
360,1643745065.9616926,0.002250068666646321
361,1643745065.9661329,0.00250007629627369
362,1643745065.970606,0.0026250801110873747
363,1643745065.9750504,0.0026250801110873747
364,1643745065.9794898,0.00250007629627369
365,1643745065.9839363,0.00250007629627369
366,1643745065.9883757,0.002250068666646321
367,1643745065.992816,0.0023750724814600053
368,1643745065.9972556,0.00250007629627369
369,1643745066.0017,0.002750083925901059
370,1643745066.006139,0.0026250801110873747
371,1643745066.0105846,0.0023750724814600053
372,1643745066.0150235,0.0023750724814600053
373,1643745066.0194643,0.0023750724814600053
374,1643745066.0239031,0.0026250801110873747
375,1643745066.0283427,0.002750083925901059
376,1643745066.0327861,0.0028750877407147436
377,1643745066.0372295,0.002750083925901059
378,1643745066.0416844,0.0026250801110873747
379,1643745066.0461307,0.00250007629627369
380,1643745066.050575,0.00250007629627369
381,1643745066.0550218,0.0026250801110873747
382,1643745066.0594656,0.0026250801110873747
383,1643745066.0639067,0.0023750724814600053
384,1643745066.0683484,0.002250068666646321
385,1643745066.0729406,0.002000061037018952
386,1643745066.0774193,0.002250068666646321
387,1643745066.0818605,0.00250007629627369
388,1643745066.0863006,0.0023750724814600053
389,1643745066.0907457,0.00250007629627369
390,1643745066.0951872,0.002250068666646321
391,1643745066.0996206,0.002250068666646321
392,1643745066.104052,0.0023750724814600053
393,1643745066.10849,0.0026250801110873747
394,1643745066.1129234,0.0023750724814600053
395,1643745066.1173565,0.0023750724814600053
396,1643745066.1217887,0.002250068666646321
397,1643745066.12622,0.002125064851832637
398,1643745066.1306577,0.002250068666646321
399,1643745066.1351,0.00250007629627369
400,1643745066.1395407,0.0026250801110873747
401,1643745066.143982,0.002750083925901059
402,1643745066.1484222,0.002750083925901059
403,1643745066.152863,0.0026250801110873747
404,1643745066.157303,0.00250007629627369
405,1643745066.1617472,0.00250007629627369
406,1643745066.1661866,0.00250007629627369
407,1643745066.1706185,0.00250007629627369
408,1643745066.1751947,0.0023750724814600053
409,1643745066.1796317,0.002250068666646321
410,1643745066.1840692,0.002250068666646321
411,1643745066.188528,0.0023750724814600053
412,1643745066.1929605,0.0026250801110873747
413,1643745066.1973948,0.002750083925901059
414,1643745066.2018337,0.0028750877407147436
415,1643745066.2062752,0.0026250801110873747
416,1643745066.2107198,0.0026250801110873747
417,1643745066.2151623,0.002750083925901059
418,1643745066.2195957,0.0026250801110873747
419,1643745066.2240283,0.002750083925901059
420,1643745066.2284608,0.0026250801110873747
421,1643745066.2328913,0.0026250801110873747
422,1643745066.2373233,0.00250007629627369
423,1643745066.2417562,0.00250007629627369
424,1643745066.2461867,0.0028750877407147436
425,1643745066.250617,0.0028750877407147436
426,1643745066.255052,0.0031250953703421125
427,1643745066.2594845,0.0030000915555284282
428,1643745066.263918,0.002750083925901059
429,1643745066.2683485,0.002750083925901059
430,1643745066.272782,0.0028750877407147436
431,1643745066.2772417,0.0028750877407147436
432,1643745066.2816808,0.0028750877407147436
433,1643745066.286123,0.00250007629627369
434,1643745066.2909276,0.002250068666646321
435,1643745066.2953777,0.002250068666646321
436,1643745066.2998195,0.0026250801110873747
437,1643745066.3042643,0.0026250801110873747
438,1643745066.3087049,0.002750083925901059
439,1643745066.313152,0.0026250801110873747
440,1643745066.3175943,0.00250007629627369
441,1643745066.3220353,0.0023750724814600053
442,1643745066.3264732,0.0023750724814600053
443,1643745066.3309152,0.00250007629627369
444,1643745066.3353994,0.00250007629627369
445,1643745066.3398614,0.0023750724814600053
446,1643745066.3443003,0.002125064851832637
447,1643745066.348733,0.0018750572222052675
448,1643745066.3531632,0.002125064851832637
449,1643745066.3575947,0.0023750724814600053
450,1643745066.362027,0.0023750724814600053
451,1643745066.3664646,0.00250007629627369
452,1643745066.3709002,0.002250068666646321
453,1643745066.3753352,0.002125064851832637
454,1643745066.3799388,0.002250068666646321
