,Time (s),Signal (V)
0,1643743951.008398,-0.0026250801110873747
1,1643743951.0141053,-0.00250007629627369
2,1643743951.014495,-0.00250007629627369
3,1643743951.0148633,-0.00250007629627369
4,1643743951.0152404,-0.00250007629627369
5,1643743951.015606,-0.00250007629627369
6,1643743951.0159702,-0.00250007629627369
7,1643743951.0163333,-0.00250007629627369
8,1643743951.016697,-0.00250007629627369
9,1643743951.0170612,-0.00250007629627369
10,1643743951.017424,-0.00250007629627369
11,1643743951.0177858,-0.00250007629627369
12,1643743951.0181482,-0.00250007629627369
13,1643743951.018514,-0.002750083925901059
14,1643743951.0188775,-0.002750083925901059
15,1643743951.0192397,-0.002750083925901059
16,1643743951.019601,-0.002750083925901059
17,1643743951.0199628,-0.002750083925901059
18,1643743951.0203247,-0.0028750877407147436
19,1643743951.0206864,-0.0028750877407147436
20,1643743951.021047,-0.0028750877407147436
21,1643743951.0214088,-0.0028750877407147436
22,1643743951.0217698,-0.0028750877407147436
23,1643743951.0221314,-0.0028750877407147436
24,1643743951.0224924,-0.0030000915555284282
25,1643743951.0228536,-0.0030000915555284282
26,1643743951.023215,-0.0030000915555284282
27,1643743951.023576,-0.0030000915555284282
28,1643743951.0239367,-0.0030000915555284282
29,1643743951.0242984,-0.0030000915555284282
30,1643743951.0246596,-0.0028750877407147436
31,1643743951.0250208,-0.0028750877407147436
32,1643743951.025382,-0.0028750877407147436
33,1643743951.025743,-0.0028750877407147436
34,1643743951.0261042,-0.0028750877407147436
35,1643743951.0264664,-0.0028750877407147436
36,1643743951.0268302,-0.0028750877407147436
37,1643743951.0271907,-0.0028750877407147436
38,1643743951.027552,-0.0028750877407147436
39,1643743951.0279129,-0.0028750877407147436
40,1643743951.0283525,-0.0028750877407147436
41,1643743951.0287194,-0.002750083925901059
42,1643743951.0290806,-0.002750083925901059
43,1643743951.029442,-0.002750083925901059
44,1643743951.0298038,-0.002750083925901059
45,1643743951.030165,-0.002750083925901059
46,1643743951.0305257,-0.002750083925901059
47,1643743951.0308876,-0.002750083925901059
48,1643743951.031249,-0.002750083925901059
49,1643743951.0316098,-0.002750083925901059
50,1643743951.0319703,-0.002750083925901059
51,1643743951.0323308,-0.002750083925901059
52,1643743951.0326915,-0.002750083925901059
53,1643743951.033052,-0.002750083925901059
54,1643743951.0334125,-0.002750083925901059
55,1643743951.0337737,-0.002750083925901059
56,1643743951.0341346,-0.002750083925901059
57,1643743951.034495,-0.002750083925901059
58,1643743951.0348566,-0.002750083925901059
59,1643743951.0352182,-0.002750083925901059
60,1643743951.0355783,-0.002750083925901059
61,1643743951.0359392,-0.002750083925901059
62,1643743951.0363002,-0.002750083925901059
63,1643743951.036661,-0.002750083925901059
64,1643743951.0370224,-0.002750083925901059
65,1643743951.0373833,-0.002750083925901059
66,1643743951.0377445,-0.002750083925901059
67,1643743951.0381072,-0.002750083925901059
68,1643743951.03847,-0.002750083925901059
69,1643743951.0388317,-0.002750083925901059
70,1643743951.0391936,-0.002750083925901059
71,1643743951.0395548,-0.002750083925901059
72,1643743951.0399165,-0.002750083925901059
73,1643743951.0402794,-0.002750083925901059
74,1643743951.040641,-0.002750083925901059
75,1643743951.041002,-0.002750083925901059
76,1643743951.0413632,-0.002750083925901059
77,1643743951.041724,-0.002750083925901059
78,1643743951.0420847,-0.002750083925901059
79,1643743951.042446,-0.002750083925901059
80,1643743951.0428069,-0.002750083925901059
81,1643743951.0431678,-0.002750083925901059
82,1643743951.043528,-0.0030000915555284282
83,1643743951.043889,-0.0030000915555284282
84,1643743951.044251,-0.0030000915555284282
85,1643743951.0446112,-0.0030000915555284282
86,1643743951.0449722,-0.0030000915555284282
87,1643743951.0453343,-0.0030000915555284282
88,1643743951.045695,-0.0028750877407147436
89,1643743951.046057,-0.0028750877407147436
90,1643743951.0464184,-0.0028750877407147436
91,1643743951.0467803,-0.0028750877407147436
92,1643743951.0471427,-0.0028750877407147436
93,1643743951.0475173,-0.0028750877407147436
94,1643743951.0478806,-0.0031250953703421125
95,1643743951.0482423,-0.0031250953703421125
96,1643743951.0486221,-0.0031250953703421125
97,1643743951.0489836,-0.0031250953703421125
98,1643743951.0493443,-0.0031250953703421125
99,1643743951.0497057,-0.0031250953703421125
100,1643743951.0500667,-0.0031250953703421125
101,1643743951.0504284,-0.0031250953703421125
102,1643743951.0507903,-0.0031250953703421125
103,1643743951.0511513,-0.0031250953703421125
104,1643743951.0515122,-0.0031250953703421125
105,1643743951.051873,-0.0031250953703421125
106,1643743951.0522337,-0.0031250953703421125
107,1643743951.0525947,-0.0031250953703421125
108,1643743951.0529554,-0.0031250953703421125
109,1643743951.053316,-0.0031250953703421125
110,1643743951.0536776,-0.0031250953703421125
111,1643743951.0540388,-0.0030000915555284282
112,1643743951.0544002,-0.0030000915555284282
113,1643743951.0547616,-0.0030000915555284282
114,1643743951.055122,-0.0030000915555284282
115,1643743951.0554821,-0.0030000915555284282
116,1643743951.0558434,-0.0030000915555284282
117,1643743951.0562036,-0.0028750877407147436
118,1643743951.0565646,-0.0028750877407147436
119,1643743951.0569263,-0.0028750877407147436
120,1643743951.0572875,-0.0028750877407147436
121,1643743951.0576482,-0.0028750877407147436
122,1643743951.0580091,-0.0028750877407147436
123,1643743951.0583744,-0.002750083925901059
124,1643743951.0587382,-0.002750083925901059
125,1643743951.059102,-0.002750083925901059
126,1643743951.059465,-0.002750083925901059
127,1643743951.0598328,-0.002750083925901059
128,1643743951.0601976,-0.002750083925901059
129,1643743951.060561,-0.00250007629627369
130,1643743951.0609236,-0.00250007629627369
131,1643743951.061287,-0.00250007629627369
132,1643743951.0616615,-0.00250007629627369
133,1643743951.062025,-0.00250007629627369
134,1643743951.0623882,-0.00250007629627369
135,1643743951.062751,-0.00250007629627369
136,1643743951.0631146,-0.00250007629627369
137,1643743951.0634778,-0.00250007629627369
138,1643743951.0638406,-0.00250007629627369
139,1643743951.064204,-0.00250007629627369
140,1643743951.064567,-0.00250007629627369
141,1643743951.0649297,-0.00250007629627369
142,1643743951.0652926,-0.00250007629627369
143,1643743951.0656552,-0.00250007629627369
144,1643743951.066018,-0.00250007629627369
145,1643743951.0663815,-0.00250007629627369
146,1643743951.0667439,-0.00250007629627369
147,1643743951.0671062,-0.00250007629627369
148,1643743951.0674696,-0.00250007629627369
149,1643743951.0678346,-0.00250007629627369
150,1643743951.068198,-0.00250007629627369
151,1643743951.0685613,-0.00250007629627369
152,1643743951.0689247,-0.0026250801110873747
153,1643743951.0692868,-0.0026250801110873747
154,1643743951.0696504,-0.0026250801110873747
155,1643743951.0700133,-0.0026250801110873747
156,1643743951.070376,-0.0026250801110873747
157,1643743951.0707383,-0.0026250801110873747
158,1643743951.0711012,-0.0026250801110873747
159,1643743951.071463,-0.0026250801110873747
160,1643743951.0718262,-0.0026250801110873747
161,1643743951.0721886,-0.0026250801110873747
162,1643743951.072552,-0.0026250801110873747
163,1643743951.0729144,-0.0026250801110873747
164,1643743951.0732775,-0.002750083925901059
165,1643743951.0736403,-0.002750083925901059
166,1643743951.0740025,-0.002750083925901059
167,1643743951.0743647,-0.002750083925901059
168,1643743951.074728,-0.002750083925901059
169,1643743951.0750906,-0.0028750877407147436
170,1643743951.075453,-0.0028750877407147436
171,1643743951.075816,-0.0028750877407147436
172,1643743951.0761786,-0.0028750877407147436
173,1643743951.0765407,-0.0028750877407147436
174,1643743951.0769072,-0.0028750877407147436
175,1643743951.0772703,-0.0030000915555284282
176,1643743951.0776334,-0.0030000915555284282
177,1643743951.0779963,-0.0030000915555284282
178,1643743951.0783598,-0.0030000915555284282
179,1643743951.078722,-0.0030000915555284282
180,1643743951.0790854,-0.0030000915555284282
181,1643743951.079448,-0.0030000915555284282
182,1643743951.0798109,-0.0030000915555284282
183,1643743951.0801737,-0.0030000915555284282
184,1643743951.0805368,-0.0030000915555284282
185,1643743951.0809,-0.0030000915555284282
186,1643743951.081272,-0.0030000915555284282
187,1643743951.0816352,-0.0030000915555284282
188,1643743951.081999,-0.0030000915555284282
189,1643743951.082362,-0.0030000915555284282
190,1643743951.0827246,-0.0030000915555284282
191,1643743951.083088,-0.0030000915555284282
192,1643743951.0834508,-0.0030000915555284282
193,1643743951.0838134,-0.0030000915555284282
194,1643743951.0842037,-0.0030000915555284282
195,1643743951.0845697,-0.0030000915555284282
196,1643743951.0849326,-0.0030000915555284282
197,1643743951.0852957,-0.0030000915555284282
198,1643743951.0856576,-0.0028750877407147436
199,1643743951.08602,-0.0028750877407147436
200,1643743951.0863829,-0.0028750877407147436
201,1643743951.0867455,-0.0028750877407147436
202,1643743951.0871093,-0.0028750877407147436
203,1643743951.087473,-0.0028750877407147436
204,1643743951.0878353,-0.0028750877407147436
205,1643743951.0881984,-0.0028750877407147436
206,1643743951.0885627,-0.0028750877407147436
207,1643743951.0889242,-0.0028750877407147436
208,1643743951.0892866,-0.0028750877407147436
209,1643743951.0896492,-0.0028750877407147436
210,1643743951.0900111,-0.0028750877407147436
211,1643743951.0903747,-0.0028750877407147436
212,1643743951.0907373,-0.0028750877407147436
213,1643743951.0911002,-0.0028750877407147436
214,1643743951.091464,-0.0028750877407147436
215,1643743951.0918264,-0.0028750877407147436
216,1643743951.0921888,-0.0030000915555284282
217,1643743951.0925524,-0.0030000915555284282
218,1643743951.0929146,-0.0030000915555284282
219,1643743951.0932772,-0.0030000915555284282
220,1643743951.0936408,-0.0030000915555284282
221,1643743951.094003,-0.0030000915555284282
222,1643743951.094365,-0.0030000915555284282
223,1643743951.0947285,-0.0030000915555284282
224,1643743951.095091,-0.0030000915555284282
225,1643743951.0954533,-0.0030000915555284282
226,1643743951.0958166,-0.0030000915555284282
227,1643743951.0961795,-0.0030000915555284282
228,1643743951.0965421,-0.0030000915555284282
229,1643743951.0969052,-0.0030000915555284282
230,1643743951.0972676,-0.0030000915555284282
231,1643743951.0976303,-0.0030000915555284282
232,1643743951.0979934,-0.0030000915555284282
233,1643743951.0983577,-0.0031250953703421125
234,1643743951.09872,-0.0031250953703421125
235,1643743951.099083,-0.0031250953703421125
236,1643743951.099446,-0.0031250953703421125
237,1643743951.0998092,-0.0031250953703421125
238,1643743951.100172,-0.0031250953703421125
239,1643743951.1005347,-0.003250099185155797
240,1643743951.1008983,-0.003250099185155797
241,1643743951.1012602,-0.003250099185155797
242,1643743951.1016226,-0.003250099185155797
243,1643743951.1019857,-0.003250099185155797
244,1643743951.1023486,-0.003250099185155797
245,1643743951.102711,-0.003500106814783166
246,1643743951.103074,-0.003500106814783166
247,1643743951.1034362,-0.003500106814783166
248,1643743951.1037986,-0.003500106814783166
249,1643743951.1041615,-0.003500106814783166
250,1643743951.1045241,-0.003500106814783166
251,1643743951.1048863,-0.003500106814783166
252,1643743951.1052501,-0.003500106814783166
253,1643743951.1056123,-0.003500106814783166
254,1643743951.1059747,-0.003500106814783166
255,1643743951.1063378,-0.003500106814783166
256,1643743951.1067007,-0.0033751029999694814
257,1643743951.107063,-0.0033751029999694814
258,1643743951.1074262,-0.0033751029999694814
259,1643743951.1077998,-0.0033751029999694814
260,1643743951.1081624,-0.0033751029999694814
261,1643743951.1085262,-0.0033751029999694814
262,1643743951.1088874,-0.0033751029999694814
263,1643743951.1092508,-0.0033751029999694814
264,1643743951.1096127,-0.0033751029999694814
265,1643743951.1099756,-0.0033751029999694814
266,1643743951.110339,-0.0033751029999694814
267,1643743951.1107018,-0.0033751029999694814
268,1643743951.1110647,-0.003250099185155797
269,1643743951.1114278,-0.003250099185155797
270,1643743951.1117911,-0.003250099185155797
271,1643743951.112154,-0.003250099185155797
272,1643743951.1125166,-0.003250099185155797
273,1643743951.1128798,-0.003250099185155797
274,1643743951.1132424,-0.0031250953703421125
275,1643743951.1136053,-0.0031250953703421125
276,1643743951.1139677,-0.0031250953703421125
277,1643743951.11433,-0.0031250953703421125
278,1643743951.1146934,-0.0031250953703421125
279,1643743951.1150558,-0.0031250953703421125
280,1643743951.1154182,-0.0031250953703421125
281,1643743951.1157813,-0.0031250953703421125
282,1643743951.116144,-0.0031250953703421125
283,1643743951.116506,-0.0031250953703421125
284,1643743951.1168683,-0.0031250953703421125
285,1643743951.1172307,-0.0030000915555284282
286,1643743951.1175933,-0.0030000915555284282
287,1643743951.1179564,-0.0030000915555284282
288,1643743951.1183202,-0.0030000915555284282
289,1643743951.118682,-0.0030000915555284282
290,1643743951.119044,-0.0030000915555284282
291,1643743951.1194072,-0.0030000915555284282
292,1643743951.1197703,-0.0030000915555284282
293,1643743951.1201332,-0.0030000915555284282
294,1643743951.120495,-0.0030000915555284282
295,1643743951.1208682,-0.0030000915555284282
296,1643743951.1212313,-0.0030000915555284282
297,1643743951.1215942,-0.0030000915555284282
298,1643743951.121957,-0.0030000915555284282
299,1643743951.1223195,-0.0030000915555284282
300,1643743951.1226816,-0.0030000915555284282
301,1643743951.123045,-0.0030000915555284282
302,1643743951.123407,-0.0030000915555284282
303,1643743951.1237693,-0.0030000915555284282
304,1643743951.1241329,-0.0030000915555284282
305,1643743951.1244955,-0.0030000915555284282
306,1643743951.1248581,-0.0030000915555284282
307,1643743951.125221,-0.0030000915555284282
308,1643743951.1255836,-0.0030000915555284282
309,1643743951.1259463,-0.0028750877407147436
310,1643743951.12631,-0.0028750877407147436
311,1643743951.1266732,-0.0028750877407147436
312,1643743951.1270356,-0.0028750877407147436
313,1643743951.1273985,-0.0028750877407147436
314,1643743951.127761,-0.0031250953703421125
315,1643743951.1281247,-0.0031250953703421125
316,1643743951.1284876,-0.0031250953703421125
317,1643743951.1288495,-0.0031250953703421125
318,1643743951.1292124,-0.0031250953703421125
319,1643743951.1295745,-0.0031250953703421125
320,1643743951.1299374,-0.003250099185155797
321,1643743951.130301,-0.003250099185155797
322,1643743951.1306634,-0.003250099185155797
323,1643743951.1310265,-0.003250099185155797
324,1643743951.1313896,-0.003250099185155797
325,1643743951.1317525,-0.003250099185155797
326,1643743951.1321154,-0.0033751029999694814
327,1643743951.1324782,-0.0033751029999694814
328,1643743951.1328404,-0.0033751029999694814
329,1643743951.1332028,-0.0033751029999694814
330,1643743951.1335661,-0.0033751029999694814
331,1643743951.133929,-0.0033751029999694814
332,1643743951.1342914,-0.0033751029999694814
333,1643743951.1346545,-0.0033751029999694814
334,1643743951.1350167,-0.0033751029999694814
335,1643743951.1353793,-0.0033751029999694814
336,1643743951.1357417,-0.0033751029999694814
337,1643743951.1361039,-0.0033751029999694814
338,1643743951.136466,-0.0033751029999694814
339,1643743951.136829,-0.0033751029999694814
340,1643743951.137191,-0.0033751029999694814
341,1643743951.1375544,-0.0033751029999694814
342,1643743951.137917,-0.0033751029999694814
343,1643743951.1382973,-0.003250099185155797
344,1643743951.1386619,-0.003250099185155797
345,1643743951.1390247,-0.003250099185155797
346,1643743951.1393867,-0.003250099185155797
347,1643743951.1397495,-0.003250099185155797
348,1643743951.140112,-0.003250099185155797
349,1643743951.1404743,-0.0031250953703421125
350,1643743951.1408374,-0.0031250953703421125
351,1643743951.1411994,-0.0031250953703421125
352,1643743951.1415615,-0.0031250953703421125
353,1643743951.1419244,-0.0031250953703421125
354,1643743951.142286,-0.0031250953703421125
355,1643743951.142649,-0.0031250953703421125
356,1643743951.1430123,-0.0031250953703421125
357,1643743951.143375,-0.0031250953703421125
358,1643743951.143737,-0.0031250953703421125
359,1643743951.1441004,-0.0031250953703421125
360,1643743951.1444626,-0.0031250953703421125
361,1643743951.1448255,-0.0031250953703421125
362,1643743951.1451876,-0.0031250953703421125
363,1643743951.14555,-0.0031250953703421125
364,1643743951.1459124,-0.0031250953703421125
365,1643743951.146275,-0.0031250953703421125
366,1643743951.1466372,-0.0031250953703421125
367,1643743951.1470008,-0.0031250953703421125
368,1643743951.1473634,-0.0031250953703421125
369,1643743951.1477256,-0.0031250953703421125
370,1643743951.1480892,-0.0031250953703421125
371,1643743951.1484528,-0.0031250953703421125
372,1643743951.1488152,-0.0031250953703421125
373,1643743951.149178,-0.0031250953703421125
374,1643743951.1495407,-0.0031250953703421125
375,1643743951.1499035,-0.0031250953703421125
376,1643743951.1502666,-0.0031250953703421125
377,1643743951.1506293,-0.0031250953703421125
378,1643743951.1509922,-0.003250099185155797
379,1643743951.1513557,-0.003250099185155797
380,1643743951.151719,-0.003250099185155797
381,1643743951.152083,-0.003250099185155797
382,1643743951.1524472,-0.003250099185155797
383,1643743951.152811,-0.003250099185155797
384,1643743951.1531746,-0.0033751029999694814
385,1643743951.1535382,-0.0033751029999694814
386,1643743951.1539123,-0.0033751029999694814
387,1643743951.1542757,-0.0033751029999694814
388,1643743951.154639,-0.0033751029999694814
389,1643743951.1550026,-0.0033751029999694814
390,1643743951.155366,-0.0033751029999694814
391,1643743951.1557286,-0.0033751029999694814
392,1643743951.1560917,-0.0033751029999694814
393,1643743951.1564555,-0.0033751029999694814
394,1643743951.1568186,-0.0033751029999694814
395,1643743951.1571815,-0.0033751029999694814
396,1643743951.1575549,-0.003500106814783166
397,1643743951.157919,-0.003500106814783166
398,1643743951.158294,-0.003500106814783166
399,1643743951.1586587,-0.003500106814783166
400,1643743951.159022,-0.003500106814783166
401,1643743951.1593847,-0.0036251106295968507
402,1643743951.1597478,-0.0036251106295968507
403,1643743951.1601102,-0.0036251106295968507
404,1643743951.1604729,-0.0036251106295968507
405,1643743951.1608365,-0.0036251106295968507
406,1643743951.1611993,-0.0036251106295968507
407,1643743951.161562,-0.003500106814783166
408,1643743951.161925,-0.003500106814783166
409,1643743951.1622875,-0.003500106814783166
410,1643743951.1626499,-0.003500106814783166
411,1643743951.1630125,-0.003500106814783166
412,1643743951.163375,-0.003500106814783166
413,1643743951.1637373,-0.0036251106295968507
414,1643743951.1641004,-0.0036251106295968507
415,1643743951.164463,-0.0036251106295968507
416,1643743951.1648266,-0.0036251106295968507
417,1643743951.1651888,-0.0036251106295968507
418,1643743951.165551,-0.0036251106295968507
419,1643743951.1659138,-0.0033751029999694814
420,1643743951.1662767,-0.0033751029999694814
421,1643743951.1666393,-0.0033751029999694814
422,1643743951.1670027,-0.0033751029999694814
423,1643743951.167365,-0.0033751029999694814
424,1643743951.167728,-0.0033751029999694814
425,1643743951.1680908,-0.003250099185155797
426,1643743951.1684544,-0.003250099185155797
427,1643743951.1688154,-0.003250099185155797
428,1643743951.1691785,-0.003250099185155797
429,1643743951.1695411,-0.003250099185155797
430,1643743951.1699033,-0.0030000915555284282
431,1643743951.1702669,-0.0030000915555284282
432,1643743951.1706293,-0.0030000915555284282
433,1643743951.1709917,-0.0030000915555284282
434,1643743951.171515,-0.0030000915555284282
435,1643743951.1718807,-0.0030000915555284282
436,1643743951.1722455,-0.0030000915555284282
437,1643743951.1726081,-0.0030000915555284282
438,1643743951.172971,-0.0030000915555284282
439,1643743951.1733344,-0.0030000915555284282
440,1643743951.1736972,-0.0030000915555284282
441,1643743951.1740599,-0.0030000915555284282
442,1643743951.174423,-0.0030000915555284282
