,Time (s),Signal (V)
0,1647013565.1770153,0.0023750724814600053
1,1647013565.1898575,0.0023750724814600053
2,1647013565.1940858,0.00250007629627369
3,1647013565.1982975,0.00250007629627369
4,1647013565.2025068,0.00250007629627369
5,1647013565.2067163,0.0023750724814600053
6,1647013565.2109232,0.0023750724814600053
7,1647013565.2151299,0.0023750724814600053
8,1647013565.2193348,0.00250007629627369
9,1647013565.2235425,0.002250068666646321
10,1647013565.2277527,0.0023750724814600053
11,1647013565.2319627,0.002250068666646321
12,1647013565.2361708,0.0023750724814600053
13,1647013565.240378,0.0023750724814600053
14,1647013565.2445867,0.00250007629627369
15,1647013565.2487938,0.0023750724814600053
16,1647013565.2530022,0.0023750724814600053
17,1647013565.2572103,0.002250068666646321
18,1647013565.2614195,0.002250068666646321
19,1647013565.2656267,0.002250068666646321
20,1647013565.2698336,0.0023750724814600053
21,1647013565.2740421,0.0023750724814600053
22,1647013565.2782495,0.002250068666646321
23,1647013565.2824578,0.002250068666646321
24,1647013565.2866642,0.002250068666646321
25,1647013565.290872,0.002250068666646321
26,1647013565.2950764,0.0023750724814600053
27,1647013565.2992795,0.0023750724814600053
28,1647013565.3034852,0.002250068666646321
29,1647013565.3076992,0.002250068666646321
30,1647013565.3119094,0.0023750724814600053
31,1647013565.3161173,0.0023750724814600053
32,1647013565.320325,0.0023750724814600053
33,1647013565.3245332,0.002250068666646321
34,1647013565.32874,0.0023750724814600053
35,1647013565.3329484,0.0023750724814600053
36,1647013565.3371558,0.002250068666646321
37,1647013565.3413653,0.0023750724814600053
38,1647013565.345572,0.0023750724814600053
39,1647013565.3497782,0.0023750724814600053
40,1647013565.353986,0.0023750724814600053
41,1647013565.3581924,0.0023750724814600053
42,1647013565.3624005,0.002250068666646321
43,1647013565.366607,0.0023750724814600053
44,1647013565.3708155,0.0023750724814600053
45,1647013565.3750226,0.002250068666646321
46,1647013565.379229,0.0023750724814600053
47,1647013565.3834383,0.002250068666646321
48,1647013565.3876448,0.002250068666646321
49,1647013565.391853,0.002125064851832637
50,1647013565.39606,0.0023750724814600053
51,1647013565.4002678,0.002250068666646321
52,1647013565.4044766,0.002250068666646321
53,1647013565.408684,0.002125064851832637
54,1647013565.4128933,0.002125064851832637
55,1647013565.4171004,0.002250068666646321
56,1647013565.4213095,0.002250068666646321
57,1647013565.4255161,0.002250068666646321
58,1647013565.4297225,0.002125064851832637
59,1647013565.433932,0.002125064851832637
60,1647013565.4381387,0.002125064851832637
61,1647013565.442347,0.002125064851832637
62,1647013565.446554,0.002250068666646321
63,1647013565.4507625,0.002250068666646321
64,1647013565.45497,0.002250068666646321
65,1647013565.4591768,0.002125064851832637
66,1647013565.4633856,0.002125064851832637
67,1647013565.467593,0.002250068666646321
68,1647013565.4718018,0.002125064851832637
69,1647013565.4760091,0.002125064851832637
70,1647013565.4802153,0.002125064851832637
71,1647013565.4844236,0.002125064851832637
72,1647013565.4886303,0.002125064851832637
73,1647013565.4928384,0.002125064851832637
74,1647013565.4970453,0.002250068666646321
75,1647013565.5012534,0.002250068666646321
76,1647013565.5054605,0.002125064851832637
77,1647013565.5096664,0.002125064851832637
78,1647013565.5138748,0.002125064851832637
79,1647013565.5180805,0.002125064851832637
80,1647013565.5222883,0.002125064851832637
81,1647013565.5264947,0.002125064851832637
82,1647013565.530716,0.002250068666646321
83,1647013565.534923,0.002125064851832637
84,1647013565.5391295,0.002125064851832637
85,1647013565.5433383,0.002125064851832637
86,1647013565.5475447,0.002250068666646321
87,1647013565.5517528,0.002250068666646321
88,1647013565.5559688,0.002125064851832637
89,1647013565.5601768,0.002125064851832637
90,1647013565.5643852,0.002125064851832637
91,1647013565.5685916,0.002125064851832637
92,1647013565.5727997,0.002125064851832637
93,1647013565.5770063,0.002125064851832637
94,1647013565.5812142,0.002125064851832637
95,1647013565.5854201,0.002125064851832637
96,1647013565.5896268,0.002125064851832637
97,1647013565.5938346,0.002125064851832637
98,1647013565.5980408,0.002250068666646321
99,1647013565.6022487,0.002250068666646321
100,1647013565.6064553,0.002125064851832637
101,1647013565.610663,0.002125064851832637
102,1647013565.6148694,0.002125064851832637
103,1647013565.6190755,0.002125064851832637
104,1647013565.623282,0.002125064851832637
105,1647013565.6274893,0.002250068666646321
106,1647013565.6316977,0.002250068666646321
107,1647013565.6359046,0.002125064851832637
108,1647013565.6401107,0.002125064851832637
109,1647013565.6443193,0.002125064851832637
110,1647013565.6485252,0.002250068666646321
111,1647013565.6527333,0.002250068666646321
112,1647013565.6569402,0.002125064851832637
113,1647013565.6611469,0.002125064851832637
114,1647013565.6653523,0.002250068666646321
115,1647013565.6695583,0.002125064851832637
116,1647013565.673766,0.002250068666646321
117,1647013565.6779723,0.002250068666646321
118,1647013565.6821804,0.002250068666646321
119,1647013565.6863863,0.002125064851832637
120,1647013565.6905925,0.002125064851832637
121,1647013565.6947992,0.002125064851832637
122,1647013565.6990066,0.002250068666646321
123,1647013565.7032142,0.002250068666646321
124,1647013565.7074208,0.002125064851832637
125,1647013565.711629,0.002125064851832637
126,1647013565.715835,0.002125064851832637
127,1647013565.7200446,0.002125064851832637
128,1647013565.7242532,0.002125064851832637
129,1647013565.7284598,0.002250068666646321
130,1647013565.732668,0.002250068666646321
131,1647013565.7368739,0.002125064851832637
132,1647013565.741082,0.002125064851832637
133,1647013565.745288,0.002125064851832637
134,1647013565.7495613,0.002250068666646321
135,1647013565.7537887,0.002250068666646321
136,1647013565.7580736,0.002125064851832637
137,1647013565.762358,0.002250068666646321
138,1647013565.7666378,0.002125064851832637
139,1647013565.7709184,0.002125064851832637
140,1647013565.7751958,0.002125064851832637
141,1647013565.7794726,0.002250068666646321
142,1647013565.7837539,0.002250068666646321
143,1647013565.788032,0.002125064851832637
144,1647013565.792312,0.002125064851832637
145,1647013565.79659,0.002125064851832637
146,1647013565.800871,0.002250068666646321
147,1647013565.8051488,0.002250068666646321
148,1647013565.8094273,0.002125064851832637
149,1647013565.8137107,0.002250068666646321
150,1647013565.8179893,0.002125064851832637
151,1647013565.8222706,0.002250068666646321
152,1647013565.8265479,0.002250068666646321
153,1647013565.8308284,0.002250068666646321
154,1647013565.8351066,0.002250068666646321
155,1647013565.839383,0.002250068666646321
156,1647013565.8436627,0.002250068666646321
157,1647013565.8479395,0.002250068666646321
158,1647013565.8523068,0.0023750724814600053
159,1647013565.8565998,0.002250068666646321
160,1647013565.8609388,0.002250068666646321
161,1647013565.8652697,0.002250068666646321
162,1647013565.869598,0.002125064851832637
163,1647013565.8739295,0.002250068666646321
164,1647013565.8782582,0.002250068666646321
165,1647013565.8825912,0.002250068666646321
166,1647013565.8869183,0.002125064851832637
167,1647013565.8912525,0.002125064851832637
168,1647013565.8955808,0.002125064851832637
169,1647013565.8999093,0.002125064851832637
170,1647013565.9042413,0.002250068666646321
171,1647013565.9085698,0.002125064851832637
172,1647013565.9129004,0.002125064851832637
173,1647013565.9172282,0.002125064851832637
174,1647013565.9215648,0.002125064851832637
175,1647013565.9258962,0.002250068666646321
176,1647013565.9302247,0.002250068666646321
177,1647013565.934556,0.002250068666646321
178,1647013565.9388845,0.002125064851832637
179,1647013565.943216,0.002125064851832637
180,1647013565.947544,0.002125064851832637
181,1647013565.9518764,0.002250068666646321
182,1647013565.9562302,0.002250068666646321
183,1647013565.9605865,0.002125064851832637
184,1647013565.9649556,0.002125064851832637
185,1647013565.9692845,0.002125064851832637
186,1647013565.9736168,0.002125064851832637
187,1647013565.9779444,0.002250068666646321
188,1647013565.9822757,0.002250068666646321
189,1647013565.9866042,0.002125064851832637
190,1647013565.9909363,0.002125064851832637
191,1647013565.995264,0.002125064851832637
192,1647013565.9995914,0.002250068666646321
193,1647013566.0039253,0.002250068666646321
194,1647013566.0082555,0.002250068666646321
195,1647013566.0125873,0.002250068666646321
196,1647013566.0169168,0.002125064851832637
197,1647013566.021249,0.002250068666646321
198,1647013566.0255783,0.002250068666646321
199,1647013566.029905,0.002250068666646321
200,1647013566.0342379,0.002250068666646321
201,1647013566.0385675,0.002125064851832637
202,1647013566.042901,0.002250068666646321
203,1647013566.0472302,0.002250068666646321
204,1647013566.051562,0.002125064851832637
205,1647013566.0558913,0.002250068666646321
206,1647013566.0602477,0.002125064851832637
207,1647013566.0645843,0.002250068666646321
208,1647013566.0689127,0.002250068666646321
209,1647013566.0732462,0.002250068666646321
210,1647013566.077573,0.0023750724814600053
211,1647013566.0819046,0.0023750724814600053
212,1647013566.0862327,0.002250068666646321
213,1647013566.0905626,0.002250068666646321
214,1647013566.0949302,0.002250068666646321
215,1647013566.099285,0.0023750724814600053
216,1647013566.1036208,0.002250068666646321
217,1647013566.1079514,0.002250068666646321
218,1647013566.1122837,0.0023750724814600053
219,1647013566.116613,0.0023750724814600053
220,1647013566.1209474,0.002250068666646321
221,1647013566.125276,0.002250068666646321
222,1647013566.1296046,0.0023750724814600053
223,1647013566.1339357,0.0023750724814600053
224,1647013566.1382651,0.002250068666646321
225,1647013566.1425977,0.002250068666646321
226,1647013566.146926,0.002250068666646321
227,1647013566.1512573,0.0023750724814600053
228,1647013566.1555874,0.0023750724814600053
229,1647013566.159915,0.0023750724814600053
230,1647013566.1642773,0.0023750724814600053
231,1647013566.168608,0.002250068666646321
232,1647013566.1729362,0.002250068666646321
233,1647013566.177263,0.002250068666646321
234,1647013566.1816013,0.00250007629627369
235,1647013566.185965,0.002250068666646321
236,1647013566.1902971,0.002250068666646321
237,1647013566.194632,0.002250068666646321
238,1647013566.198965,0.0023750724814600053
239,1647013566.2033021,0.0023750724814600053
240,1647013566.2076318,0.0023750724814600053
241,1647013566.2119646,0.0023750724814600053
242,1647013566.2162936,0.0023750724814600053
243,1647013566.220623,0.002250068666646321
244,1647013566.2249904,0.002250068666646321
245,1647013566.2293181,0.0023750724814600053
246,1647013566.2336516,0.0023750724814600053
247,1647013566.2384481,0.002250068666646321
248,1647013566.2427902,0.002250068666646321
249,1647013566.2471206,0.0023750724814600053
250,1647013566.2514565,0.0023750724814600053
251,1647013566.2557864,0.0023750724814600053
252,1647013566.260115,0.0023750724814600053
253,1647013566.2644815,0.0023750724814600053
254,1647013566.2688143,0.002250068666646321
255,1647013566.2731478,0.002250068666646321
256,1647013566.2774777,0.002250068666646321
257,1647013566.2818086,0.0023750724814600053
258,1647013566.286137,0.002250068666646321
259,1647013566.290465,0.002250068666646321
260,1647013566.2947986,0.002250068666646321
261,1647013566.2991257,0.002250068666646321
262,1647013566.30346,0.002250068666646321
263,1647013566.3077893,0.002250068666646321
264,1647013566.3121223,0.002250068666646321
265,1647013566.3164508,0.002250068666646321
266,1647013566.3207843,0.002250068666646321
267,1647013566.325113,0.002250068666646321
268,1647013566.3294396,0.002250068666646321
269,1647013566.3337731,0.002250068666646321
270,1647013566.3380966,0.002250068666646321
271,1647013566.3424225,0.002250068666646321
272,1647013566.346761,0.002250068666646321
273,1647013566.351097,0.002250068666646321
274,1647013566.3554273,0.002250068666646321
275,1647013566.3597565,0.002250068666646321
276,1647013566.3640895,0.002250068666646321
277,1647013566.3684483,0.002125064851832637
278,1647013566.3727846,0.002250068666646321
279,1647013566.3771148,0.002125064851832637
280,1647013566.3814473,0.002250068666646321
281,1647013566.385776,0.002250068666646321
282,1647013566.3901033,0.002250068666646321
283,1647013566.3944361,0.002125064851832637
284,1647013566.3987665,0.002125064851832637
285,1647013566.4030993,0.002125064851832637
286,1647013566.4074297,0.002250068666646321
287,1647013566.4117627,0.002125064851832637
288,1647013566.416092,0.002250068666646321
289,1647013566.4204187,0.002125064851832637
290,1647013566.4247792,0.002125064851832637
291,1647013566.429109,0.002250068666646321
292,1647013566.4334443,0.002250068666646321
293,1647013566.4377742,0.002250068666646321
294,1647013566.4421067,0.002250068666646321
295,1647013566.446437,0.002250068666646321
296,1647013566.4507704,0.002125064851832637
297,1647013566.4551008,0.002125064851832637
298,1647013566.4594293,0.002250068666646321
299,1647013566.463764,0.002250068666646321
300,1647013566.4680948,0.002250068666646321
301,1647013566.472485,0.002125064851832637
302,1647013566.47682,0.002250068666646321
303,1647013566.481155,0.002250068666646321
304,1647013566.4854846,0.002250068666646321
305,1647013566.4898133,0.002250068666646321
306,1647013566.4941459,0.002250068666646321
307,1647013566.498475,0.002125064851832637
308,1647013566.5028076,0.002250068666646321
309,1647013566.5071363,0.002250068666646321
310,1647013566.511471,0.0023750724814600053
311,1647013566.5158024,0.002250068666646321
312,1647013566.5201294,0.002250068666646321
313,1647013566.524463,0.002125064851832637
314,1647013566.5287929,0.002250068666646321
315,1647013566.5331254,0.002250068666646321
316,1647013566.5374527,0.002250068666646321
317,1647013566.5417857,0.002250068666646321
318,1647013566.5461142,0.002250068666646321
319,1647013566.5504413,0.002250068666646321
320,1647013566.5548031,0.002250068666646321
321,1647013566.559132,0.002250068666646321
322,1647013566.5634677,0.002250068666646321
323,1647013566.5677967,0.002250068666646321
324,1647013566.5721283,0.002125064851832637
325,1647013566.576485,0.002250068666646321
326,1647013566.5808187,0.002250068666646321
327,1647013566.5851495,0.002250068666646321
328,1647013566.5894783,0.002250068666646321
329,1647013566.593811,0.002250068666646321
330,1647013566.59814,0.002250068666646321
331,1647013566.6024733,0.002250068666646321
332,1647013566.6068027,0.002125064851832637
333,1647013566.6111367,0.0023750724814600053
334,1647013566.6154656,0.0023750724814600053
335,1647013566.619794,0.002250068666646321
336,1647013566.6241264,0.002250068666646321
337,1647013566.6284575,0.0023750724814600053
338,1647013566.6327906,0.0023750724814600053
339,1647013566.6371193,0.0023750724814600053
340,1647013566.6414528,0.0023750724814600053
341,1647013566.6457806,0.0023750724814600053
342,1647013566.650107,0.002250068666646321
343,1647013566.6544392,0.002250068666646321
344,1647013566.658798,0.0023750724814600053
345,1647013566.6631331,0.0023750724814600053
346,1647013566.6674623,0.002250068666646321
347,1647013566.671795,0.002250068666646321
348,1647013566.6761227,0.002250068666646321
349,1647013566.6804776,0.002250068666646321
350,1647013566.6848152,0.0023750724814600053
351,1647013566.6891432,0.0023750724814600053
352,1647013566.693477,0.0023750724814600053
353,1647013566.6978054,0.002250068666646321
354,1647013566.7021382,0.0023750724814600053
355,1647013566.7064676,0.0023750724814600053
356,1647013566.7108004,0.0023750724814600053
357,1647013566.7151287,0.0023750724814600053
358,1647013566.7194567,0.0023750724814600053
359,1647013566.7237892,0.002250068666646321
360,1647013566.7281191,0.0023750724814600053
361,1647013566.73245,0.0023750724814600053
362,1647013566.7367778,0.0023750724814600053
363,1647013566.7411106,0.0023750724814600053
364,1647013566.7454388,0.002250068666646321
365,1647013566.749767,0.0023750724814600053
366,1647013566.754099,0.002250068666646321
367,1647013566.758428,0.002250068666646321
368,1647013566.7627597,0.0023750724814600053
369,1647013566.767088,0.0023750724814600053
370,1647013566.7714207,0.002250068666646321
371,1647013566.7757497,0.002125064851832637
372,1647013566.7800786,0.002250068666646321
373,1647013566.7844377,0.002250068666646321
374,1647013566.788769,0.002125064851832637
375,1647013566.7931032,0.002250068666646321
376,1647013566.7974324,0.002125064851832637
377,1647013566.8017652,0.002125064851832637
378,1647013566.8060944,0.002125064851832637
379,1647013566.810421,0.002125064851832637
380,1647013566.8147838,0.002250068666646321
381,1647013566.8191144,0.002250068666646321
382,1647013566.823449,0.002250068666646321
383,1647013566.8277767,0.002250068666646321
384,1647013566.832109,0.002250068666646321
385,1647013566.8364391,0.002250068666646321
386,1647013566.8407714,0.002250068666646321
387,1647013566.8450992,0.002250068666646321
388,1647013566.8494275,0.002250068666646321
389,1647013566.8537605,0.002250068666646321
390,1647013566.858091,0.002250068666646321
391,1647013566.8624227,0.0023750724814600053
392,1647013566.8667526,0.00250007629627369
393,1647013566.8710847,0.0023750724814600053
394,1647013566.8754513,0.0023750724814600053
395,1647013566.879782,0.0023750724814600053
396,1647013566.884115,0.00250007629627369
397,1647013566.8884723,0.00250007629627369
398,1647013566.8928072,0.00250007629627369
399,1647013566.8971362,0.0023750724814600053
400,1647013566.90147,0.0023750724814600053
401,1647013566.9057996,0.0023750724814600053
402,1647013566.910151,0.0023750724814600053
403,1647013566.914486,0.0023750724814600053
404,1647013566.9188154,0.0023750724814600053
405,1647013566.9231489,0.002250068666646321
406,1647013566.9274783,0.002250068666646321
407,1647013566.9318116,0.002250068666646321
408,1647013566.9361398,0.0023750724814600053
409,1647013566.940468,0.0023750724814600053
410,1647013566.9448013,0.0023750724814600053
411,1647013566.9491284,0.002250068666646321
412,1647013566.953463,0.0023750724814600053
413,1647013566.9577918,0.002125064851832637
414,1647013566.9621239,0.0023750724814600053
415,1647013566.966452,0.0023750724814600053
416,1647013566.9707844,0.0023750724814600053
417,1647013566.9751146,0.002250068666646321
418,1647013566.9794428,0.002250068666646321
419,1647013566.983776,0.0023750724814600053
420,1647013566.988106,0.0023750724814600053
421,1647013566.9924645,0.0023750724814600053
422,1647013566.9967973,0.0023750724814600053
423,1647013567.0011318,0.0023750724814600053
424,1647013567.0054612,0.0023750724814600053
425,1647013567.0097892,0.002250068666646321
426,1647013567.014122,0.0023750724814600053
427,1647013567.018453,0.0023750724814600053
428,1647013567.0227883,0.002250068666646321
429,1647013567.0271177,0.002250068666646321
430,1647013567.0314498,0.0023750724814600053
431,1647013567.0357792,0.0023750724814600053
432,1647013567.0401077,0.0023750724814600053
433,1647013567.0444396,0.0023750724814600053
434,1647013567.048768,0.002250068666646321
435,1647013567.0531018,0.002250068666646321
436,1647013567.0574298,0.002250068666646321
437,1647013567.0617619,0.0023750724814600053
438,1647013567.0660906,0.0023750724814600053
439,1647013567.0704186,0.0023750724814600053
440,1647013567.0747826,0.002250068666646321
441,1647013567.0791125,0.002250068666646321
442,1647013567.0834458,0.0023750724814600053
443,1647013567.0877771,0.0023750724814600053
444,1647013567.0921082,0.0023750724814600053
445,1647013567.0964632,0.0023750724814600053
446,1647013567.100799,0.002250068666646321
447,1647013567.1051285,0.002250068666646321
448,1647013567.1094568,0.002250068666646321
449,1647013567.113789,0.0023750724814600053
450,1647013567.1181188,0.0023750724814600053
451,1647013567.12245,0.002250068666646321
452,1647013567.1267788,0.002250068666646321
453,1647013567.1311107,0.002250068666646321
454,1647013567.1354396,0.0023750724814600053
455,1647013567.1397665,0.0023750724814600053
