,Time (s),Signal (V)
0,1649710765.5392666,0.0016250495925778986
1,1649710765.5521712,0.001250038148136845
2,1649710765.55648,0.0015000457777642141
3,1649710765.560721,0.0011250343333231605
4,1649710765.564984,0.0008750267036957915
5,1649710765.5692325,0.0006250190740684225
6,1649710765.5734768,0.0006250190740684225
7,1649710765.577722,0.0008750267036957915
8,1649710765.5819664,0.001000030518509476
9,1649710765.5862107,0.0
10,1649710765.5904574,0.0001250038148136845
11,1649710765.5947082,0.0011250343333231605
12,1649710765.5989587,-0.016500503555406356
13,1649710765.603212,-0.003500106814783166
14,1649710765.6074631,0.000250007629627369
15,1649710765.6117098,0.0015000457777642141
16,1649710765.615956,0.001250038148136845
17,1649710765.6202002,0.0016250495925778986
18,1649710765.6244462,0.001000030518509476
19,1649710765.6286893,0.0007500228888821071
20,1649710765.6329362,0.0006250190740684225
21,1649710765.6371853,-0.0006250190740684225
22,1649710765.641436,-0.000250007629627369
23,1649710765.6456943,-0.000250007629627369
24,1649710765.6499407,0.000500015259254738
25,1649710765.6541877,0.0
26,1649710765.6584365,0.0008750267036957915
27,1649710765.662689,-0.000250007629627369
28,1649710765.6669607,0.0007500228888821071
29,1649710765.6712103,0.001000030518509476
30,1649710765.6754556,0.00037501144444105353
31,1649710765.679703,0.00037501144444105353
32,1649710765.683948,0.0
33,1649710765.6881902,0.000250007629627369
34,1649710765.6924336,0.000500015259254738
35,1649710765.6966758,0.000500015259254738
36,1649710765.7009182,0.000500015259254738
37,1649710765.7051606,0.00037501144444105353
38,1649710765.7094133,0.000500015259254738
39,1649710765.7136614,0.000500015259254738
40,1649710765.7179046,0.0008750267036957915
41,1649710765.7221487,0.0007500228888821071
42,1649710765.726394,0.0013750419629505295
43,1649710765.730635,0.002000061037018952
44,1649710765.7348971,0.0001250038148136845
45,1649710765.7391446,0.001000030518509476
46,1649710765.7433887,0.001250038148136845
47,1649710765.7476332,0.0008750267036957915
48,1649710765.75188,0.000500015259254738
49,1649710765.7561195,0.000500015259254738
50,1649710765.760357,0.000500015259254738
51,1649710765.7646,0.000500015259254738
52,1649710765.7688496,-0.000250007629627369
53,1649710765.7730966,0.0001250038148136845
54,1649710765.7773418,0.00037501144444105353
55,1649710765.7815876,0.0008750267036957915
56,1649710765.7858331,0.0008750267036957915
57,1649710765.7900763,0.001250038148136845
58,1649710765.794321,0.001750053407391583
59,1649710765.798563,0.0013750419629505295
60,1649710765.8028038,0.001750053407391583
61,1649710765.8070452,0.002000061037018952
62,1649710765.8112924,0.0001250038148136845
63,1649710765.8155386,0.0007500228888821071
64,1649710765.8197834,0.00037501144444105353
65,1649710765.8240273,0.000250007629627369
66,1649710765.8282704,0.000250007629627369
67,1649710765.8325129,0.001000030518509476
68,1649710765.8367555,-0.000250007629627369
69,1649710765.8410017,0.0001250038148136845
70,1649710765.8452458,0.0008750267036957915
71,1649710765.8494878,0.0008750267036957915
72,1649710765.85373,0.0008750267036957915
73,1649710765.8579752,0.001250038148136845
74,1649710765.862219,0.0013750419629505295
75,1649710765.86646,0.0016250495925778986
76,1649710765.8707027,0.0013750419629505295
77,1649710765.8749435,0.001250038148136845
78,1649710765.8791828,0.001250038148136845
79,1649710765.8834236,0.001000030518509476
80,1649710765.8876646,0.0008750267036957915
81,1649710765.8919156,0.00037501144444105353
82,1649710765.8961606,0.0008750267036957915
83,1649710765.9004052,0.000500015259254738
84,1649710765.9046485,0.001000030518509476
85,1649710765.9088917,0.0013750419629505295
86,1649710765.9131315,0.0016250495925778986
87,1649710765.9173744,0.0015000457777642141
88,1649710765.9216182,0.0013750419629505295
89,1649710765.9258642,0.001250038148136845
90,1649710765.9301093,0.0016250495925778986
91,1649710765.9343495,0.001000030518509476
92,1649710765.9385915,0.0007500228888821071
93,1649710765.9428315,0.0007500228888821071
94,1649710765.9470718,0.000250007629627369
95,1649710765.9513152,-0.0007500228888821071
96,1649710765.9555602,0.0001250038148136845
97,1649710765.9598053,0.000250007629627369
98,1649710765.9640493,0.00037501144444105353
99,1649710765.968291,0.0006250190740684225
100,1649710765.9725337,0.0006250190740684225
101,1649710765.976778,0.001250038148136845
102,1649710765.9810205,0.0015000457777642141
103,1649710765.9852622,0.0015000457777642141
104,1649710765.989507,0.000500015259254738
105,1649710765.9937508,0.0015000457777642141
106,1649710765.9979923,0.0013750419629505295
107,1649710766.0022376,0.001250038148136845
108,1649710766.006479,0.0011250343333231605
109,1649710766.0107214,0.0006250190740684225
110,1649710766.0149662,0.00037501144444105353
111,1649710766.0192497,0.00037501144444105353
112,1649710766.0236423,0.0006250190740684225
113,1649710766.028016,0.0011250343333231605
114,1649710766.0323908,0.0011250343333231605
115,1649710766.0367575,0.0013750419629505295
116,1649710766.0411246,0.001750053407391583
117,1649710766.0454907,0.001750053407391583
118,1649710766.049854,0.0016250495925778986
119,1649710766.054219,0.0016250495925778986
120,1649710766.058583,0.0018750572222052675
121,1649710766.062949,0.001250038148136845
122,1649710766.0673122,0.0015000457777642141
123,1649710766.0716789,0.0013750419629505295
124,1649710766.0760486,-0.0008750267036957915
125,1649710766.0804188,0.0006250190740684225
126,1649710766.0848129,0.000500015259254738
127,1649710766.0891883,0.000500015259254738
128,1649710766.0935855,0.001250038148136845
129,1649710766.0979955,0.0015000457777642141
130,1649710766.1023698,0.0016250495925778986
131,1649710766.1067362,0.002000061037018952
132,1649710766.1111066,0.002125064851832637
133,1649710766.11548,0.0023750724814600053
134,1649710766.11985,0.001750053407391583
135,1649710766.1242676,0.0007500228888821071
136,1649710766.1288073,0.001250038148136845
137,1649710766.1333392,0.001250038148136845
138,1649710766.1378608,0.0013750419629505295
139,1649710766.1423821,0.0015000457777642141
140,1649710766.1469126,0.0008750267036957915
141,1649710766.1514444,0.001250038148136845
142,1649710766.1559682,0.001750053407391583
143,1649710766.1604905,0.0018750572222052675
144,1649710766.1650145,0.002125064851832637
145,1649710766.1695373,0.00250007629627369
146,1649710766.1740623,0.0028750877407147436
147,1649710766.178575,0.0026250801110873747
148,1649710766.1830945,0.0023750724814600053
149,1649710766.1876285,0.002125064851832637
150,1649710766.1921535,0.001250038148136845
151,1649710766.1966853,0.0015000457777642141
152,1649710766.2012088,0.0013750419629505295
153,1649710766.2057323,0.0016250495925778986
154,1649710766.2102528,0.0016250495925778986
155,1649710766.2147815,0.0018750572222052675
156,1649710766.2193003,0.002000061037018952
157,1649710766.2239842,0.0023750724814600053
158,1649710766.2285013,0.002750083925901059
159,1649710766.2329621,0.0026250801110873747
160,1649710766.2374213,0.002750083925901059
161,1649710766.2418797,0.002750083925901059
162,1649710766.246339,0.003250099185155797
163,1649710766.2508128,0.0028750877407147436
164,1649710766.255276,0.002750083925901059
165,1649710766.2597337,0.0026250801110873747
166,1649710766.2641916,0.002250068666646321
167,1649710766.268647,0.002250068666646321
168,1649710766.273105,0.002000061037018952
169,1649710766.2775621,0.0026250801110873747
170,1649710766.2820172,0.002750083925901059
171,1649710766.28647,0.00250007629627369
172,1649710766.2909346,0.0031250953703421125
173,1649710766.2953904,0.0031250953703421125
174,1649710766.2998495,0.0026250801110873747
175,1649710766.3043025,0.0026250801110873747
176,1649710766.3087635,0.0013750419629505295
177,1649710766.3132253,0.0016250495925778986
178,1649710766.3176854,0.0013750419629505295
179,1649710766.3221426,0.001250038148136845
180,1649710766.3266025,0.0011250343333231605
181,1649710766.3310604,0.001250038148136845
182,1649710766.3355174,0.0011250343333231605
183,1649710766.3399708,0.002000061037018952
184,1649710766.3444316,0.0026250801110873747
185,1649710766.3488889,0.002125064851832637
186,1649710766.3533466,0.0026250801110873747
187,1649710766.3578014,0.0033751029999694814
188,1649710766.3622577,0.003250099185155797
189,1649710766.3667104,0.003500106814783166
190,1649710766.3711739,0.0023750724814600053
191,1649710766.3756304,0.00250007629627369
192,1649710766.380088,0.0023750724814600053
193,1649710766.3845444,0.0018750572222052675
194,1649710766.3889918,0.0018750572222052675
195,1649710766.3934422,0.00250007629627369
196,1649710766.3979053,0.0018750572222052675
197,1649710766.4023588,0.0018750572222052675
198,1649710766.4068115,0.002125064851832637
199,1649710766.4112675,0.002250068666646321
200,1649710766.4157212,0.002250068666646321
201,1649710766.4201734,0.002250068666646321
202,1649710766.4246306,0.002000061037018952
203,1649710766.429087,0.002250068666646321
204,1649710766.4335494,0.001000030518509476
205,1649710766.4380052,0.0011250343333231605
206,1649710766.4424593,0.001250038148136845
207,1649710766.4469147,0.0013750419629505295
208,1649710766.4513679,0.0011250343333231605
209,1649710766.4558184,0.001250038148136845
210,1649710766.4602678,0.0015000457777642141
211,1649710766.4647183,0.002000061037018952
212,1649710766.4691782,0.001250038148136845
213,1649710766.4736373,0.0023750724814600053
214,1649710766.4780908,0.0028750877407147436
215,1649710766.482546,0.0031250953703421125
216,1649710766.487002,0.0030000915555284282
217,1649710766.4914606,0.00250007629627369
218,1649710766.4959161,0.0030000915555284282
219,1649710766.5003717,0.0023750724814600053
220,1649710766.5048568,0.002250068666646321
221,1649710766.5093167,0.002000061037018952
222,1649710766.5137746,0.001750053407391583
223,1649710766.5182307,0.002000061037018952
224,1649710766.522689,0.002000061037018952
225,1649710766.5271444,0.0018750572222052675
226,1649710766.5316315,0.002250068666646321
227,1649710766.5360878,0.0023750724814600053
228,1649710766.5405471,0.00250007629627369
229,1649710766.5450068,0.0023750724814600053
230,1649710766.5494947,0.00250007629627369
231,1649710766.5539558,0.0026250801110873747
232,1649710766.5584168,0.002000061037018952
233,1649710766.5628808,0.0023750724814600053
234,1649710766.5673409,0.002250068666646321
235,1649710766.5718036,0.002125064851832637
236,1649710766.5762594,0.002125064851832637
237,1649710766.580747,0.0023750724814600053
238,1649710766.5852058,0.002000061037018952
239,1649710766.5896642,0.0023750724814600053
240,1649710766.5941212,0.0031250953703421125
241,1649710766.5985703,0.003250099185155797
242,1649710766.603026,0.0033751029999694814
243,1649710766.607501,0.002750083925901059
244,1649710766.6119623,0.003250099185155797
245,1649710766.6164172,0.003250099185155797
246,1649710766.6208735,0.002750083925901059
247,1649710766.625333,0.0031250953703421125
248,1649710766.6297839,0.0028750877407147436
249,1649710766.63424,0.0023750724814600053
250,1649710766.6386967,0.002250068666646321
251,1649710766.6431563,0.0030000915555284282
252,1649710766.647608,0.0030000915555284282
253,1649710766.6520586,0.0028750877407147436
254,1649710766.6565084,0.003250099185155797
255,1649710766.6609876,0.003500106814783166
256,1649710766.665449,0.003500106814783166
257,1649710766.6699018,0.002750083925901059
258,1649710766.6743577,0.0030000915555284282
259,1649710766.678814,0.0036251106295968507
260,1649710766.68327,0.003250099185155797
261,1649710766.687724,0.0028750877407147436
262,1649710766.6921828,0.002750083925901059
263,1649710766.6966436,0.0023750724814600053
264,1649710766.7011082,0.002000061037018952
265,1649710766.7055626,0.0023750724814600053
266,1649710766.7100136,0.002250068666646321
267,1649710766.7144723,0.0026250801110873747
268,1649710766.718924,0.0030000915555284282
269,1649710766.7233756,0.0031250953703421125
270,1649710766.7278318,0.0030000915555284282
271,1649710766.732293,0.003750114444410535
272,1649710766.7367644,0.003500106814783166
273,1649710766.7412257,0.003500106814783166
274,1649710766.745681,0.0036251106295968507
275,1649710766.7501376,0.0030000915555284282
276,1649710766.7545972,0.0031250953703421125
277,1649710766.759058,0.0023750724814600053
278,1649710766.7635162,0.0023750724814600053
279,1649710766.7679727,0.00250007629627369
280,1649710766.7724283,0.002250068666646321
281,1649710766.7768826,0.0026250801110873747
282,1649710766.7813396,0.0023750724814600053
283,1649710766.7857966,0.00250007629627369
284,1649710766.7902517,0.002750083925901059
285,1649710766.7947042,0.0028750877407147436
286,1649710766.7991598,0.0026250801110873747
287,1649710766.803616,0.002750083925901059
288,1649710766.8080688,0.0028750877407147436
289,1649710766.8125226,0.002750083925901059
290,1649710766.8169818,0.0023750724814600053
291,1649710766.8214445,0.00250007629627369
292,1649710766.8258944,0.00250007629627369
293,1649710766.8303416,0.002750083925901059
294,1649710766.8348198,0.002125064851832637
295,1649710766.8392773,0.0026250801110873747
296,1649710766.8437328,0.0031250953703421125
297,1649710766.8481812,0.0033751029999694814
298,1649710766.8526316,0.0033751029999694814
299,1649710766.8570867,0.003500106814783166
300,1649710766.8615572,0.002250068666646321
301,1649710766.8660126,0.0026250801110873747
302,1649710766.8704703,0.0026250801110873747
303,1649710766.8749282,0.002000061037018952
304,1649710766.8793843,0.002125064851832637
305,1649710766.883839,0.001750053407391583
306,1649710766.8882961,0.0015000457777642141
307,1649710766.8927517,0.0016250495925778986
308,1649710766.897207,0.0018750572222052675
309,1649710766.9016597,0.002000061037018952
310,1649710766.9061172,0.002125064851832637
311,1649710766.9105704,0.00250007629627369
312,1649710766.9150238,0.002750083925901059
313,1649710766.9194794,0.002750083925901059
314,1649710766.9239333,0.002750083925901059
315,1649710766.9283893,0.0030000915555284282
316,1649710766.9328465,0.003250099185155797
317,1649710766.9373264,0.0031250953703421125
318,1649710766.9417908,0.0028750877407147436
319,1649710766.9462428,0.0026250801110873747
320,1649710766.950724,0.0023750724814600053
321,1649710766.955182,0.00250007629627369
322,1649710766.9596303,0.00250007629627369
323,1649710766.964084,0.0015000457777642141
324,1649710766.9685445,0.001750053407391583
325,1649710766.9730008,0.00250007629627369
326,1649710766.9774497,0.002750083925901059
327,1649710766.981904,0.0028750877407147436
328,1649710766.9863572,0.00250007629627369
329,1649710766.9908242,0.0018750572222052675
330,1649710766.9952781,0.0026250801110873747
331,1649710766.9997613,0.0023750724814600053
332,1649710767.004225,0.0015000457777642141
333,1649710767.0086856,0.0016250495925778986
334,1649710767.0131419,0.001750053407391583
335,1649710767.0175893,0.0016250495925778986
336,1649710767.0220425,0.0016250495925778986
337,1649710767.0265043,0.002000061037018952
338,1649710767.0309663,0.0026250801110873747
339,1649710767.035421,0.002250068666646321
340,1649710767.0398743,0.00250007629627369
341,1649710767.0443306,0.002750083925901059
342,1649710767.0487869,0.0028750877407147436
343,1649710767.0532432,0.002750083925901059
344,1649710767.0576975,0.0030000915555284282
345,1649710767.062153,0.0026250801110873747
346,1649710767.066603,0.001750053407391583
347,1649710767.0710635,0.001750053407391583
348,1649710767.075521,0.001750053407391583
349,1649710767.0799737,0.0018750572222052675
350,1649710767.0844247,0.0015000457777642141
351,1649710767.0888808,0.0015000457777642141
352,1649710767.0933378,0.002000061037018952
353,1649710767.0977945,0.0026250801110873747
354,1649710767.102244,0.0026250801110873747
355,1649710767.1066995,0.002750083925901059
356,1649710767.1111581,0.0026250801110873747
357,1649710767.115614,0.0030000915555284282
358,1649710767.1200657,0.0026250801110873747
359,1649710767.1245267,0.0018750572222052675
360,1649710767.1289785,0.0016250495925778986
361,1649710767.1334338,0.0015000457777642141
362,1649710767.1379154,0.0013750419629505295
363,1649710767.1423755,0.0016250495925778986
364,1649710767.146835,0.001250038148136845
365,1649710767.1512938,0.001250038148136845
366,1649710767.1557474,0.0015000457777642141
367,1649710767.1602035,0.0016250495925778986
368,1649710767.1646564,0.002250068666646321
369,1649710767.1691139,0.0016250495925778986
370,1649710767.1735673,0.002000061037018952
371,1649710767.1780245,0.002000061037018952
372,1649710767.1824806,0.001750053407391583
373,1649710767.1869364,0.0016250495925778986
374,1649710767.1913986,0.0018750572222052675
375,1649710767.1958594,0.0016250495925778986
376,1649710767.2003155,0.0013750419629505295
377,1649710767.204801,0.0013750419629505295
378,1649710767.2092674,0.0016250495925778986
379,1649710767.2137249,0.0015000457777642141
380,1649710767.2181802,0.001750053407391583
381,1649710767.2226343,0.002000061037018952
382,1649710767.2271996,0.00250007629627369
383,1649710767.2319283,0.002250068666646321
384,1649710767.2364042,0.002125064851832637
385,1649710767.2408643,0.00250007629627369
386,1649710767.245329,0.00250007629627369
387,1649710767.2497804,0.0018750572222052675
388,1649710767.2542312,0.0016250495925778986
389,1649710767.258682,0.001250038148136845
390,1649710767.2631307,0.001250038148136845
391,1649710767.2675862,0.002000061037018952
392,1649710767.272043,0.001750053407391583
393,1649710767.276504,0.002250068666646321
394,1649710767.2809675,0.00250007629627369
395,1649710767.2854276,0.0026250801110873747
396,1649710767.2898822,0.0026250801110873747
397,1649710767.294341,0.002750083925901059
398,1649710767.2987933,0.002125064851832637
399,1649710767.3032496,0.002750083925901059
400,1649710767.307706,0.0026250801110873747
401,1649710767.3121653,0.002000061037018952
402,1649710767.3166258,0.001750053407391583
403,1649710767.3210816,0.0015000457777642141
404,1649710767.325539,0.0015000457777642141
405,1649710767.3299952,0.0015000457777642141
406,1649710767.3344507,0.0015000457777642141
407,1649710767.3389082,0.0015000457777642141
408,1649710767.3433626,0.002000061037018952
409,1649710767.34782,0.0016250495925778986
410,1649710767.3522809,0.002125064851832637
411,1649710767.3567376,0.0023750724814600053
412,1649710767.3611956,0.0023750724814600053
413,1649710767.365654,0.0026250801110873747
414,1649710767.370108,0.0028750877407147436
415,1649710767.374561,0.002250068666646321
416,1649710767.3790152,0.0023750724814600053
417,1649710767.3834662,0.002125064851832637
418,1649710767.3879182,0.0018750572222052675
419,1649710767.3923752,0.00250007629627369
420,1649710767.396824,0.0023750724814600053
421,1649710767.401285,0.00250007629627369
422,1649710767.4057386,0.0028750877407147436
423,1649710767.4102015,0.002250068666646321
424,1649710767.4146564,0.002750083925901059
425,1649710767.4191148,0.0028750877407147436
426,1649710767.42357,0.0026250801110873747
427,1649710767.4280236,0.0031250953703421125
428,1649710767.4324834,0.0028750877407147436
429,1649710767.4369352,0.002250068666646321
430,1649710767.4413896,0.002250068666646321
431,1649710767.4458494,0.0023750724814600053
432,1649710767.4503357,0.001750053407391583
433,1649710767.454798,0.001750053407391583
434,1649710767.4592516,0.0018750572222052675
435,1649710767.4637125,0.0023750724814600053
436,1649710767.4681633,0.00250007629627369
437,1649710767.472618,0.0026250801110873747
438,1649710767.4770675,0.0030000915555284282
439,1649710767.4815218,0.0031250953703421125
440,1649710767.4859757,0.002750083925901059
441,1649710767.4904299,0.0026250801110873747
442,1649710767.4948907,0.0033751029999694814
443,1649710767.4993443,0.00250007629627369
444,1649710767.5037994,0.002250068666646321
445,1649710767.5082552,0.002250068666646321
446,1649710767.5127084,0.002125064851832637
447,1649710767.5171614,0.002125064851832637
448,1649710767.521614,0.001750053407391583
449,1649710767.5260692,0.002125064851832637
450,1649710767.5305195,0.002750083925901059
451,1649710767.5349746,0.0028750877407147436
452,1649710767.5394235,0.003250099185155797
453,1649710767.5438735,0.003250099185155797
