,Time (s),Signal (V)
0,1649446003.6412232,-0.0056251716666158025
1,1649446003.6541276,-0.005500167851802118
2,1649446003.658425,-0.0056251716666158025
3,1649446003.66268,-0.005750175481429487
4,1649446003.6669269,-0.005750175481429487
5,1649446003.6711786,-0.0056251716666158025
6,1649446003.6754246,-0.0056251716666158025
7,1649446003.6796658,-0.0056251716666158025
8,1649446003.6839097,-0.0056251716666158025
9,1649446003.6881511,-0.0056251716666158025
10,1649446003.692392,-0.0056251716666158025
11,1649446003.6966295,-0.0056251716666158025
12,1649446003.700872,-0.0056251716666158025
13,1649446003.7051175,-0.0056251716666158025
14,1649446003.7093585,-0.0056251716666158025
15,1649446003.7136009,-0.005750175481429487
16,1649446003.7178445,-0.005750175481429487
17,1649446003.7220867,-0.005750175481429487
18,1649446003.7263286,-0.005750175481429487
19,1649446003.730571,-0.0056251716666158025
20,1649446003.7348115,-0.0056251716666158025
21,1649446003.7390513,-0.0056251716666158025
22,1649446003.7432935,-0.0056251716666158025
23,1649446003.7475355,-0.0056251716666158025
24,1649446003.7517755,-0.0056251716666158025
25,1649446003.7560136,-0.0056251716666158025
26,1649446003.760254,-0.0056251716666158025
27,1649446003.7645118,-0.005875179296243172
28,1649446003.7687564,-0.005750175481429487
29,1649446003.772997,-0.005750175481429487
30,1649446003.7772408,-0.005750175481429487
31,1649446003.7814815,-0.005750175481429487
32,1649446003.785722,-0.005750175481429487
33,1649446003.7899628,-0.005750175481429487
34,1649446003.7942016,-0.005875179296243172
35,1649446003.7984428,-0.005750175481429487
36,1649446003.8026826,-0.005750175481429487
37,1649446003.8069232,-0.005750175481429487
38,1649446003.811168,-0.005750175481429487
39,1649446003.8154087,-0.005875179296243172
40,1649446003.81965,-0.005875179296243172
41,1649446003.8238912,-0.005875179296243172
42,1649446003.8281362,-0.005875179296243172
43,1649446003.8323784,-0.005875179296243172
44,1649446003.8366172,-0.0060001831110568565
45,1649446003.8408568,-0.0060001831110568565
46,1649446003.8450963,-0.0060001831110568565
47,1649446003.84934,-0.0060001831110568565
48,1649446003.8535862,-0.005875179296243172
49,1649446003.8578315,-0.005875179296243172
50,1649446003.8620718,-0.0060001831110568565
51,1649446003.866311,-0.0060001831110568565
52,1649446003.8705509,-0.0060001831110568565
53,1649446003.8747869,-0.0060001831110568565
54,1649446003.879022,-0.0060001831110568565
55,1649446003.8832552,-0.0060001831110568565
56,1649446003.8874943,-0.0060001831110568565
57,1649446003.8917394,-0.00612518692587054
58,1649446003.8959801,-0.0060001831110568565
59,1649446003.9002213,-0.0060001831110568565
60,1649446003.9044616,-0.0060001831110568565
61,1649446003.9087021,-0.0060001831110568565
62,1649446003.9129412,-0.00612518692587054
63,1649446003.9171836,-0.00612518692587054
64,1649446003.9214237,-0.00612518692587054
65,1649446003.9256623,-0.00612518692587054
66,1649446003.9299026,-0.00612518692587054
67,1649446003.9341404,-0.00612518692587054
68,1649446003.9383793,-0.00612518692587054
69,1649446003.9426184,-0.00612518692587054
70,1649446003.946855,-0.0060001831110568565
71,1649446003.9511106,-0.0060001831110568565
72,1649446003.9553509,-0.00612518692587054
73,1649446003.9595907,-0.00612518692587054
74,1649446003.9638295,-0.006250190740684225
75,1649446003.9680715,-0.00612518692587054
76,1649446003.972312,-0.00612518692587054
77,1649446003.9765496,-0.00612518692587054
78,1649446003.980788,-0.00612518692587054
79,1649446003.9850266,-0.006250190740684225
80,1649446003.989266,-0.006250190740684225
81,1649446003.993506,-0.00612518692587054
82,1649446003.997748,-0.00612518692587054
83,1649446004.001988,-0.00612518692587054
84,1649446004.0062258,-0.006250190740684225
85,1649446004.010465,-0.00612518692587054
86,1649446004.014703,-0.00612518692587054
87,1649446004.0189567,-0.00612518692587054
88,1649446004.023203,-0.00612518692587054
89,1649446004.0274456,-0.00612518692587054
90,1649446004.031686,-0.00612518692587054
91,1649446004.035927,-0.00612518692587054
92,1649446004.0401657,-0.00612518692587054
93,1649446004.0444052,-0.00612518692587054
94,1649446004.0486443,-0.0060001831110568565
95,1649446004.0528834,-0.0060001831110568565
96,1649446004.0571256,-0.0060001831110568565
97,1649446004.0613658,-0.0060001831110568565
98,1649446004.0656052,-0.0060001831110568565
99,1649446004.0698447,-0.0060001831110568565
100,1649446004.0740848,-0.0060001831110568565
101,1649446004.0783236,-0.0060001831110568565
102,1649446004.0825608,-0.0060001831110568565
103,1649446004.0867996,-0.005875179296243172
104,1649446004.0910378,-0.0060001831110568565
105,1649446004.0952733,-0.0060001831110568565
106,1649446004.0995116,-0.005875179296243172
107,1649446004.1037562,-0.0060001831110568565
108,1649446004.1079943,-0.0060001831110568565
109,1649446004.1123114,-0.00612518692587054
110,1649446004.1165884,-0.0060001831110568565
111,1649446004.1209557,-0.0060001831110568565
112,1649446004.1253183,-0.0060001831110568565
113,1649446004.1296866,-0.0060001831110568565
114,1649446004.1340573,-0.0060001831110568565
115,1649446004.138425,-0.0060001831110568565
116,1649446004.1427891,-0.0060001831110568565
117,1649446004.1471536,-0.0060001831110568565
118,1649446004.1515152,-0.0060001831110568565
119,1649446004.1558766,-0.0060001831110568565
120,1649446004.160237,-0.0060001831110568565
121,1649446004.164598,-0.00612518692587054
122,1649446004.1689634,-0.00612518692587054
123,1649446004.1733277,-0.0060001831110568565
124,1649446004.1776912,-0.0060001831110568565
125,1649446004.1820521,-0.00612518692587054
126,1649446004.1864133,-0.00612518692587054
127,1649446004.1907816,-0.00612518692587054
128,1649446004.1951954,-0.0060001831110568565
129,1649446004.199566,-0.00612518692587054
130,1649446004.2039292,-0.00612518692587054
131,1649446004.2082934,-0.00612518692587054
132,1649446004.2127645,-0.00612518692587054
133,1649446004.21718,-0.0060001831110568565
134,1649446004.2217026,-0.0060001831110568565
135,1649446004.2262192,-0.00612518692587054
136,1649446004.2307358,-0.00612518692587054
137,1649446004.2352557,-0.00612518692587054
138,1649446004.2397711,-0.00612518692587054
139,1649446004.2442863,-0.00612518692587054
140,1649446004.2488,-0.0060001831110568565
141,1649446004.253318,-0.0060001831110568565
142,1649446004.2578368,-0.00612518692587054
143,1649446004.262352,-0.00612518692587054
144,1649446004.26687,-0.0060001831110568565
145,1649446004.2713923,-0.0060001831110568565
146,1649446004.2759109,-0.00612518692587054
147,1649446004.2804263,-0.00612518692587054
148,1649446004.2849426,-0.00612518692587054
149,1649446004.2894635,-0.006250190740684225
150,1649446004.2939808,-0.00612518692587054
151,1649446004.2985027,-0.006250190740684225
152,1649446004.3030097,-0.00612518692587054
153,1649446004.3075185,-0.00612518692587054
154,1649446004.3120418,-0.00612518692587054
155,1649446004.31671,-0.00612518692587054
156,1649446004.3212273,-0.0060001831110568565
157,1649446004.3256829,-0.0060001831110568565
158,1649446004.3301325,-0.00612518692587054
159,1649446004.334582,-0.00612518692587054
160,1649446004.3390322,-0.006250190740684225
161,1649446004.3434815,-0.00612518692587054
162,1649446004.3479335,-0.0060001831110568565
163,1649446004.3523834,-0.006250190740684225
164,1649446004.3568325,-0.00612518692587054
165,1649446004.3612876,-0.006250190740684225
166,1649446004.365738,-0.00612518692587054
167,1649446004.370186,-0.00612518692587054
168,1649446004.3746374,-0.00612518692587054
169,1649446004.3790884,-0.00612518692587054
170,1649446004.3835366,-0.00612518692587054
171,1649446004.3879888,-0.00612518692587054
172,1649446004.3924375,-0.00612518692587054
173,1649446004.396889,-0.00612518692587054
174,1649446004.401351,-0.00612518692587054
175,1649446004.4058053,-0.00612518692587054
176,1649446004.410256,-0.006250190740684225
177,1649446004.4147077,-0.00612518692587054
178,1649446004.4191823,-0.00612518692587054
179,1649446004.4236333,-0.00612518692587054
180,1649446004.4280825,-0.006250190740684225
181,1649446004.432533,-0.006250190740684225
182,1649446004.4370043,-0.006250190740684225
183,1649446004.4414506,-0.00612518692587054
184,1649446004.445894,-0.006250190740684225
185,1649446004.450344,-0.006250190740684225
186,1649446004.4548073,-0.006250190740684225
187,1649446004.45926,-0.006250190740684225
188,1649446004.4637096,-0.006250190740684225
189,1649446004.468165,-0.006250190740684225
190,1649446004.472616,-0.006250190740684225
191,1649446004.4770706,-0.006250190740684225
192,1649446004.4815204,-0.006250190740684225
193,1649446004.4859722,-0.006250190740684225
194,1649446004.4904218,-0.006250190740684225
195,1649446004.4948714,-0.006250190740684225
196,1649446004.4993203,-0.00612518692587054
197,1649446004.503769,-0.006250190740684225
198,1649446004.5082226,-0.006250190740684225
199,1649446004.5126634,-0.006250190740684225
200,1649446004.5171294,-0.006250190740684225
201,1649446004.5216124,-0.006250190740684225
202,1649446004.5260665,-0.006250190740684225
203,1649446004.5305135,-0.006250190740684225
204,1649446004.534963,-0.006250190740684225
205,1649446004.5394173,-0.00612518692587054
206,1649446004.5438662,-0.00612518692587054
207,1649446004.5483174,-0.00612518692587054
208,1649446004.5527666,-0.006250190740684225
209,1649446004.5572152,-0.006250190740684225
210,1649446004.5616617,-0.006250190740684225
211,1649446004.5661101,-0.006250190740684225
212,1649446004.5705626,-0.006250190740684225
213,1649446004.5750124,-0.006250190740684225
214,1649446004.5794601,-0.006250190740684225
215,1649446004.583907,-0.00637519455549791
216,1649446004.5883586,-0.00637519455549791
217,1649446004.5928066,-0.006250190740684225
218,1649446004.5972593,-0.00637519455549791
219,1649446004.6017077,-0.006250190740684225
220,1649446004.6061535,-0.006250190740684225
221,1649446004.6106002,-0.006250190740684225
222,1649446004.6150494,-0.006250190740684225
223,1649446004.619499,-0.00612518692587054
224,1649446004.6240823,-0.006250190740684225
225,1649446004.6285577,-0.006250190740684225
226,1649446004.633083,-0.00637519455549791
227,1649446004.637606,-0.006250190740684225
228,1649446004.642124,-0.00637519455549791
229,1649446004.6466768,-0.006250190740684225
230,1649446004.651232,-0.00637519455549791
231,1649446004.6557531,-0.00637519455549791
232,1649446004.6602712,-0.00637519455549791
233,1649446004.6647885,-0.00637519455549791
234,1649446004.669306,-0.00637519455549791
235,1649446004.6738274,-0.00637519455549791
236,1649446004.6783686,-0.00637519455549791
237,1649446004.6828861,-0.00637519455549791
238,1649446004.687408,-0.00637519455549791
239,1649446004.6919262,-0.00637519455549791
240,1649446004.696441,-0.00637519455549791
241,1649446004.7009583,-0.00637519455549791
242,1649446004.7054741,-0.00637519455549791
243,1649446004.7099922,-0.00637519455549791
244,1649446004.7145162,-0.00637519455549791
245,1649446004.7190378,-0.006500198370311594
246,1649446004.7235446,-0.00637519455549791
247,1649446004.72806,-0.00637519455549791
248,1649446004.7325764,-0.006500198370311594
249,1649446004.7370636,-0.00637519455549791
250,1649446004.7415175,-0.00637519455549791
251,1649446004.7459674,-0.00637519455549791
252,1649446004.750419,-0.00637519455549791
253,1649446004.7548683,-0.006250190740684225
254,1649446004.7593167,-0.006250190740684225
255,1649446004.7637935,-0.006250190740684225
256,1649446004.768253,-0.006250190740684225
257,1649446004.7727036,-0.006250190740684225
258,1649446004.7771583,-0.00637519455549791
259,1649446004.7816114,-0.006250190740684225
260,1649446004.7860625,-0.006250190740684225
261,1649446004.7905138,-0.006250190740684225
262,1649446004.7949646,-0.006250190740684225
263,1649446004.7994208,-0.00637519455549791
264,1649446004.803874,-0.006250190740684225
265,1649446004.808323,-0.006250190740684225
266,1649446004.8127723,-0.00612518692587054
267,1649446004.8172262,-0.006250190740684225
268,1649446004.8216794,-0.006250190740684225
269,1649446004.8261275,-0.006250190740684225
270,1649446004.8306034,-0.006250190740684225
271,1649446004.8350558,-0.006250190740684225
272,1649446004.8395152,-0.006250190740684225
273,1649446004.8439636,-0.00637519455549791
274,1649446004.8484151,-0.00637519455549791
275,1649446004.8528717,-0.00637519455549791
276,1649446004.8573263,-0.00637519455549791
277,1649446004.861776,-0.006250190740684225
278,1649446004.8662307,-0.00612518692587054
279,1649446004.870681,-0.00612518692587054
280,1649446004.8751338,-0.006250190740684225
281,1649446004.8795807,-0.00637519455549791
282,1649446004.8840313,-0.00637519455549791
283,1649446004.8884852,-0.00637519455549791
284,1649446004.892938,-0.00637519455549791
285,1649446004.897392,-0.00637519455549791
286,1649446004.9018419,-0.00612518692587054
287,1649446004.9062908,-0.0060001831110568565
288,1649446004.910739,-0.00612518692587054
289,1649446004.9151876,-0.0060001831110568565
290,1649446004.9196556,-0.006250190740684225
291,1649446004.9241424,-0.00637519455549791
292,1649446004.9286063,-0.00637519455549791
293,1649446004.9330795,-0.00637519455549791
294,1649446004.9375298,-0.006250190740684225
295,1649446004.9420037,-0.00612518692587054
296,1649446004.9464843,-0.006250190740684225
297,1649446004.950943,-0.009625293740653707
298,1649446004.9554055,-0.007000213629566332
299,1649446004.9598584,-0.006625202185125278
300,1649446004.9643233,-0.00612518692587054
301,1649446004.9687788,-0.0068752098147526475
302,1649446004.973233,-0.01000030518509476
303,1649446004.9776886,-0.006500198370311594
304,1649446004.982144,-0.0060001831110568565
305,1649446004.986594,-0.0060001831110568565
306,1649446004.9910407,-0.011625354777672658
307,1649446004.9954882,-0.00750022888882107
308,1649446004.9999363,-0.006500198370311594
309,1649446005.0043838,-0.006625202185125278
310,1649446005.0088367,-0.006250190740684225
311,1649446005.0132887,-0.006250190740684225
312,1649446005.0177474,-0.00612518692587054
313,1649446005.0222042,-0.0072502212591937015
314,1649446005.026652,-0.007000213629566332
315,1649446005.0310998,-0.008750267036957915
316,1649446005.0355837,-0.014500442518387403
317,1649446005.0400364,-0.0060001831110568565
318,1649446005.0444846,-0.0056251716666158025
319,1649446005.0489297,-0.006250190740684225
320,1649446005.0533764,-0.008125247962889492
321,1649446005.0578263,-0.0161254921109653
322,1649446005.0622723,-0.006750205999938963
323,1649446005.0667188,-0.00637519455549791
324,1649446005.0712063,-0.00637519455549791
325,1649446005.0756593,-0.01712552262947478
326,1649446005.080107,-0.008750267036957915
327,1649446005.0845537,-0.006500198370311594
328,1649446005.0890017,-0.006500198370311594
329,1649446005.0934486,-0.00637519455549791
330,1649446005.097936,-0.01587548448133793
331,1649446005.1023843,-0.009000274666585284
332,1649446005.1068292,-0.00637519455549791
333,1649446005.111282,-0.00637519455549791
334,1649446005.1157296,-0.0088752708517716
335,1649446005.1201756,-0.015125461592455824
336,1649446005.1246238,-0.0068752098147526475
337,1649446005.1290686,-0.00637519455549791
338,1649446005.1335137,-0.00637519455549791
339,1649446005.1380994,-0.008125247962889492
340,1649446005.1425638,-0.007000213629566332
341,1649446005.147149,-0.006625202185125278
342,1649446005.1516707,-0.006625202185125278
343,1649446005.1561866,-0.006625202185125278
344,1649446005.1607003,-0.016875514999847407
345,1649446005.1652153,-0.0088752708517716
346,1649446005.1697423,-0.007750236518448439
347,1649446005.1742654,-0.007000213629566332
348,1649446005.1787806,-0.08400256355479599
349,1649446005.183295,-0.01950059511093478
350,1649446005.1878085,-0.006750205999938963
351,1649446005.192321,-0.006500198370311594
352,1649446005.1968367,-0.006625202185125278
353,1649446005.2013574,-0.014875453962828456
354,1649446005.2058768,-0.011625354777672658
355,1649446005.2103918,-0.006750205999938963
356,1649446005.2149045,-0.006625202185125278
357,1649446005.219422,-0.013625415814691611
358,1649446005.2239344,-0.013000396740623189
359,1649446005.228449,-0.006625202185125278
360,1649446005.2329664,-0.006500198370311594
361,1649446005.237482,-0.006500198370311594
362,1649446005.2420034,-0.006500198370311594
363,1649446005.2465158,-0.01500045777764214
364,1649446005.2509704,-0.006750205999938963
365,1649446005.255417,-0.006625202185125278
366,1649446005.259868,-0.006625202185125278
367,1649446005.2643166,-0.014500442518387403
368,1649446005.2687626,-0.013500411999877926
369,1649446005.273209,-0.006750205999938963
370,1649446005.277657,-0.00637519455549791
371,1649446005.2821066,-0.00637519455549791
372,1649446005.286554,-0.006750205999938963
373,1649446005.2910004,-0.007625232703634755
374,1649446005.2954473,-0.006625202185125278
375,1649446005.2998927,-0.006625202185125278
376,1649446005.3043396,-0.0068752098147526475
377,1649446005.3088229,-0.021750663777581104
378,1649446005.3132741,-0.008250251777703178
379,1649446005.317724,-0.0068752098147526475
380,1649446005.322173,-0.0068752098147526475
381,1649446005.32662,-0.007000213629566332
382,1649446005.3311632,-0.013500411999877926
383,1649446005.3357732,-0.007000213629566332
384,1649446005.3402312,-0.006750205999938963
385,1649446005.3447106,-0.006500198370311594
386,1649446005.349166,-0.01587548448133793
387,1649446005.3536105,-0.01500045777764214
388,1649446005.3580658,-0.008625263222144231
389,1649446005.362527,-0.006625202185125278
390,1649446005.3670018,-0.006625202185125278
391,1649446005.371461,-0.020875637073885314
392,1649446005.3759143,-0.00975029755546739
393,1649446005.3803673,-0.007125217444380017
394,1649446005.38482,-0.007125217444380017
395,1649446005.389271,-0.011250343333231605
396,1649446005.393722,-0.018750572222052675
397,1649446005.3981755,-0.0072502212591937015
398,1649446005.4026253,-0.007625232703634755
399,1649446005.4070752,-0.008125247962889492
400,1649446005.4115276,-0.006500198370311594
401,1649446005.4159756,-0.00612518692587054
402,1649446005.4204266,-0.006750205999938963
403,1649446005.424872,-0.0068752098147526475
404,1649446005.4293175,-0.006500198370311594
405,1649446005.4337664,-0.006250190740684225
406,1649446005.4382277,-0.006250190740684225
407,1649446005.4426758,-0.006625202185125278
408,1649446005.4471273,-0.0068752098147526475
409,1649446005.4515848,-0.007000213629566332
410,1649446005.4560318,-0.0068752098147526475
411,1649446005.4604793,-0.0072502212591937015
412,1649446005.4649296,-0.007125217444380017
413,1649446005.469375,-0.007125217444380017
414,1649446005.4738224,-0.007125217444380017
415,1649446005.4782703,-0.007125217444380017
416,1649446005.4827209,-0.0072502212591937015
417,1649446005.4871686,-0.007000213629566332
418,1649446005.4916198,-0.006750205999938963
419,1649446005.4960663,-0.006625202185125278
420,1649446005.5005171,-0.006625202185125278
421,1649446005.5049636,-0.006500198370311594
422,1649446005.5094142,-0.00637519455549791
423,1649446005.5138597,-0.006500198370311594
424,1649446005.5183105,-0.006500198370311594
425,1649446005.5227566,-0.006625202185125278
426,1649446005.527207,-0.006500198370311594
427,1649446005.531654,-0.006625202185125278
428,1649446005.5361001,-0.006500198370311594
429,1649446005.5405478,-0.007000213629566332
430,1649446005.5449936,-0.0072502212591937015
431,1649446005.5496154,-0.007375225074007386
432,1649446005.5541058,-0.007125217444380017
433,1649446005.558645,-0.0068752098147526475
434,1649446005.563155,-0.0068752098147526475
435,1649446005.5676727,-0.007000213629566332
436,1649446005.5721998,-0.006625202185125278
437,1649446005.5767124,-0.00637519455549791
438,1649446005.5812352,-0.006500198370311594
439,1649446005.585752,-0.006625202185125278
440,1649446005.5902662,-0.006500198370311594
441,1649446005.5947802,-0.00637519455549791
442,1649446005.5992973,-0.00612518692587054
443,1649446005.603817,-0.006250190740684225
444,1649446005.608332,-0.006625202185125278
445,1649446005.6128464,-0.006750205999938963
446,1649446005.617364,-0.0068752098147526475
447,1649446005.6218796,-0.007125217444380017
448,1649446005.626393,-0.0072502212591937015
449,1649446005.6309037,-0.007125217444380017
