,Time (s),Signal (V)
0,1649770837.1711793,-0.02362572099978637
1,1649770837.1841028,-0.02362572099978637
2,1649770837.1885555,-0.023750724814600055
3,1649770837.1929219,-0.02362572099978637
4,1649770837.1972718,-0.02362572099978637
5,1649770837.2017813,-0.023750724814600055
6,1649770837.2061362,-0.02362572099978637
7,1649770837.2104783,-0.02362572099978637
8,1649770837.2148206,-0.02362572099978637
9,1649770837.2191596,-0.023750724814600055
10,1649770837.2234986,-0.02362572099978637
11,1649770837.2278411,-0.02362572099978637
12,1649770837.2321832,-0.023750724814600055
13,1649770837.236502,-0.02362572099978637
14,1649770837.2408216,-0.02362572099978637
15,1649770837.2451835,-0.02362572099978637
16,1649770837.2495334,-0.023750724814600055
17,1649770837.253898,-0.02362572099978637
18,1649770837.2582579,-0.02362572099978637
19,1649770837.262622,-0.023500717184972687
20,1649770837.2669642,-0.02362572099978637
21,1649770837.27131,-0.02362572099978637
22,1649770837.2756724,-0.02362572099978637
23,1649770837.280018,-0.02362572099978637
24,1649770837.2843695,-0.02362572099978637
25,1649770837.28872,-0.02362572099978637
26,1649770837.2930791,-0.02362572099978637
27,1649770837.2974231,-0.02362572099978637
28,1649770837.3017738,-0.023750724814600055
29,1649770837.3061135,-0.02362572099978637
30,1649770837.310466,-0.02362572099978637
31,1649770837.3148174,-0.02362572099978637
32,1649770837.3191729,-0.02362572099978637
33,1649770837.323524,-0.02362572099978637
34,1649770837.327868,-0.02362572099978637
35,1649770837.3322115,-0.02362572099978637
36,1649770837.3365517,-0.023750724814600055
37,1649770837.3409047,-0.02362572099978637
38,1649770837.345281,-0.02362572099978637
39,1649770837.349645,-0.023750724814600055
40,1649770837.3540184,-0.02362572099978637
41,1649770837.3583655,-0.023500717184972687
42,1649770837.362729,-0.023500717184972687
43,1649770837.367074,-0.02362572099978637
44,1649770837.371482,-0.02362572099978637
45,1649770837.3758368,-0.02362572099978637
46,1649770837.3801897,-0.02362572099978637
47,1649770837.3845456,-0.02362572099978637
48,1649770837.388885,-0.023500717184972687
49,1649770837.3932352,-0.023500717184972687
50,1649770837.3975818,-0.023500717184972687
51,1649770837.4019227,-0.023500717184972687
52,1649770837.4062774,-0.02362572099978637
53,1649770837.4106386,-0.023500717184972687
54,1649770837.4149826,-0.02362572099978637
55,1649770837.4193275,-0.02362572099978637
56,1649770837.4236796,-0.023500717184972687
57,1649770837.4280276,-0.02362572099978637
58,1649770837.4323666,-0.02362572099978637
59,1649770837.4367075,-0.02362572099978637
60,1649770837.4410589,-0.023500717184972687
61,1649770837.4454072,-0.02362572099978637
62,1649770837.449748,-0.02362572099978637
63,1649770837.4541135,-0.02362572099978637
64,1649770837.4584935,-0.02362572099978637
65,1649770837.4628484,-0.023500717184972687
66,1649770837.4671957,-0.02362572099978637
67,1649770837.471586,-0.02362572099978637
68,1649770837.475922,-0.023500717184972687
69,1649770837.4802535,-0.023500717184972687
70,1649770837.484587,-0.02362572099978637
71,1649770837.4889162,-0.023500717184972687
72,1649770837.4932442,-0.023500717184972687
73,1649770837.4975715,-0.023500717184972687
74,1649770837.5019064,-0.023500717184972687
75,1649770837.5062392,-0.023500717184972687
76,1649770837.5105805,-0.023500717184972687
77,1649770837.514918,-0.02362572099978637
78,1649770837.51925,-0.02362572099978637
79,1649770837.5235775,-0.023500717184972687
80,1649770837.5279129,-0.023500717184972687
81,1649770837.5322843,-0.023500717184972687
82,1649770837.5366285,-0.023500717184972687
83,1649770837.54099,-0.023500717184972687
84,1649770837.5453362,-0.02362572099978637
85,1649770837.5496733,-0.023500717184972687
86,1649770837.5540028,-0.023500717184972687
87,1649770837.5583327,-0.023500717184972687
88,1649770837.5626624,-0.023500717184972687
89,1649770837.5670059,-0.02362572099978637
90,1649770837.5713398,-0.023500717184972687
91,1649770837.5756772,-0.023500717184972687
92,1649770837.5800068,-0.023500717184972687
93,1649770837.5843418,-0.02362572099978637
94,1649770837.5886698,-0.023500717184972687
95,1649770837.5929976,-0.023500717184972687
96,1649770837.5973427,-0.02362572099978637
97,1649770837.6016796,-0.02362572099978637
98,1649770837.606008,-0.023500717184972687
99,1649770837.6103365,-0.023500717184972687
100,1649770837.6146665,-0.023500717184972687
101,1649770837.6189926,-0.023500717184972687
102,1649770837.623322,-0.023500717184972687
103,1649770837.627654,-0.023375713370159
104,1649770837.6319838,-0.023500717184972687
105,1649770837.6364853,-0.023500717184972687
106,1649770837.6409228,-0.023500717184972687
107,1649770837.645404,-0.023500717184972687
108,1649770837.6498325,-0.023500717184972687
109,1649770837.6542501,-0.023500717184972687
110,1649770837.658672,-0.023375713370159
111,1649770837.6630836,-0.023500717184972687
112,1649770837.6675205,-0.023500717184972687
113,1649770837.6719387,-0.023500717184972687
114,1649770837.676351,-0.023375713370159
115,1649770837.6807592,-0.023500717184972687
116,1649770837.6851647,-0.023500717184972687
117,1649770837.6895761,-0.023375713370159
118,1649770837.6939924,-0.023500717184972687
119,1649770837.698411,-0.023500717184972687
120,1649770837.7028253,-0.023500717184972687
121,1649770837.7072346,-0.023500717184972687
122,1649770837.711644,-0.023500717184972687
123,1649770837.7160685,-0.02362572099978637
124,1649770837.7204826,-0.023500717184972687
125,1649770837.7248938,-0.023375713370159
126,1649770837.729302,-0.023500717184972687
127,1649770837.7337215,-0.023500717184972687
128,1649770837.738154,-0.023375713370159
129,1649770837.74257,-0.023500717184972687
130,1649770837.7469811,-0.023500717184972687
131,1649770837.7513928,-0.023500717184972687
132,1649770837.7558064,-0.023500717184972687
133,1649770837.7602181,-0.023375713370159
134,1649770837.7646239,-0.023500717184972687
135,1649770837.7690353,-0.02362572099978637
136,1649770837.7734447,-0.023375713370159
137,1649770837.7778544,-0.023375713370159
138,1649770837.7822635,-0.023500717184972687
139,1649770837.786668,-0.023500717184972687
140,1649770837.791075,-0.023500717184972687
141,1649770837.795483,-0.023375713370159
142,1649770837.7998898,-0.023500717184972687
143,1649770837.804298,-0.023500717184972687
144,1649770837.808705,-0.023500717184972687
145,1649770837.813111,-0.023375713370159
146,1649770837.8175197,-0.023500717184972687
147,1649770837.8219273,-0.023375713370159
148,1649770837.826336,-0.023375713370159
149,1649770837.8307498,-0.023500717184972687
150,1649770837.8351579,-0.023500717184972687
151,1649770837.839564,-0.023375713370159
152,1649770837.8439732,-0.023375713370159
153,1649770837.848386,-0.023500717184972687
154,1649770837.8527994,-0.023375713370159
155,1649770837.8572073,-0.023375713370159
156,1649770837.8616211,-0.023375713370159
157,1649770837.8660307,-0.023375713370159
158,1649770837.8704436,-0.023375713370159
159,1649770837.8748631,-0.023375713370159
160,1649770837.879275,-0.023375713370159
161,1649770837.883688,-0.023375713370159
162,1649770837.8880966,-0.023375713370159
163,1649770837.892506,-0.023375713370159
164,1649770837.8969152,-0.023375713370159
165,1649770837.9013271,-0.023500717184972687
166,1649770837.905735,-0.023375713370159
167,1649770837.9101434,-0.023375713370159
168,1649770837.9145555,-0.023500717184972687
169,1649770837.9189677,-0.023375713370159
170,1649770837.9233801,-0.023375713370159
171,1649770837.9277968,-0.023375713370159
172,1649770837.9322076,-0.023375713370159
173,1649770837.936609,-0.023375713370159
174,1649770837.9410226,-0.023375713370159
175,1649770837.9454365,-0.023375713370159
176,1649770837.9498596,-0.023375713370159
177,1649770837.954353,-0.023375713370159
178,1649770837.9588869,-0.023375713370159
179,1649770837.9633737,-0.023375713370159
180,1649770837.967801,-0.023500717184972687
181,1649770837.9722142,-0.023500717184972687
182,1649770837.9766214,-0.023375713370159
183,1649770837.9810326,-0.023375713370159
184,1649770837.9854453,-0.023500717184972687
185,1649770837.9898565,-0.023375713370159
186,1649770837.994259,-0.023375713370159
187,1649770837.9986713,-0.023375713370159
188,1649770838.0030892,-0.023375713370159
189,1649770838.0075264,-0.023375713370159
190,1649770838.0119436,-0.023375713370159
191,1649770838.0163512,-0.023375713370159
192,1649770838.0207598,-0.023375713370159
193,1649770838.025164,-0.023375713370159
194,1649770838.0295742,-0.023375713370159
195,1649770838.0339847,-0.023375713370159
196,1649770838.0383968,-0.023375713370159
197,1649770838.0428073,-0.023375713370159
198,1649770838.0472229,-0.023375713370159
199,1649770838.0516412,-0.023375713370159
200,1649770838.0560546,-0.023375713370159
201,1649770838.0604608,-0.023250709555345316
202,1649770838.0648704,-0.023375713370159
203,1649770838.069278,-0.023375713370159
204,1649770838.0736864,-0.023250709555345316
205,1649770838.0780993,-0.023250709555345316
206,1649770838.082512,-0.023375713370159
207,1649770838.0869193,-0.023375713370159
208,1649770838.0913322,-0.023250709555345316
209,1649770838.0957396,-0.023375713370159
210,1649770838.100148,-0.023375713370159
211,1649770838.104558,-0.023375713370159
212,1649770838.108969,-0.023250709555345316
213,1649770838.113377,-0.023375713370159
214,1649770838.1177886,-0.023375713370159
215,1649770838.1221957,-0.023375713370159
216,1649770838.1266022,-0.023250709555345316
217,1649770838.1310103,-0.023375713370159
218,1649770838.1354194,-0.023375713370159
219,1649770838.1398268,-0.023375713370159
220,1649770838.1442347,-0.023375713370159
221,1649770838.148638,-0.023375713370159
222,1649770838.1530428,-0.023375713370159
223,1649770838.1574728,-0.023250709555345316
224,1649770838.1619039,-0.023250709555345316
225,1649770838.16632,-0.023375713370159
226,1649770838.170742,-0.023375713370159
227,1649770838.1751623,-0.023250709555345316
228,1649770838.1795828,-0.023375713370159
229,1649770838.184008,-0.023375713370159
230,1649770838.1884253,-0.023375713370159
231,1649770838.1928377,-0.023250709555345316
232,1649770838.197255,-0.023375713370159
233,1649770838.2017047,-0.023375713370159
234,1649770838.2061625,-0.023375713370159
235,1649770838.2106025,-0.023250709555345316
236,1649770838.2150362,-0.023375713370159
237,1649770838.2194495,-0.023375713370159
238,1649770838.2238605,-0.023250709555345316
239,1649770838.2282705,-0.023375713370159
240,1649770838.2326841,-0.023375713370159
241,1649770838.2370913,-0.023375713370159
242,1649770838.241502,-0.023250709555345316
243,1649770838.2459478,-0.023250709555345316
244,1649770838.250397,-0.023375713370159
245,1649770838.254811,-0.023250709555345316
246,1649770838.259118,-0.023250709555345316
247,1649770838.2634792,-0.023250709555345316
248,1649770838.2678177,-0.023250709555345316
249,1649770838.2721713,-0.023250709555345316
250,1649770838.2765486,-0.023250709555345316
251,1649770838.2810416,-0.023250709555345316
252,1649770838.2855308,-0.023375713370159
253,1649770838.2900155,-0.023250709555345316
254,1649770838.2945237,-0.023250709555345316
255,1649770838.2990735,-0.023375713370159
256,1649770838.3035638,-0.023250709555345316
257,1649770838.308049,-0.023250709555345316
258,1649770838.3125162,-0.023250709555345316
259,1649770838.3169775,-0.023375713370159
260,1649770838.3214505,-0.023250709555345316
261,1649770838.3259397,-0.023250709555345316
262,1649770838.3304105,-0.023250709555345316
263,1649770838.3348858,-0.023250709555345316
264,1649770838.3393474,-0.023250709555345316
265,1649770838.3438115,-0.023250709555345316
266,1649770838.348274,-0.023375713370159
267,1649770838.352742,-0.023250709555345316
268,1649770838.357204,-0.023250709555345316
269,1649770838.3616712,-0.023250709555345316
270,1649770838.366142,-0.023250709555345316
271,1649770838.37062,-0.023375713370159
272,1649770838.3752007,-0.023250709555345316
273,1649770838.3796206,-0.023250709555345316
274,1649770838.3838704,-0.023250709555345316
275,1649770838.3881207,-0.023250709555345316
276,1649770838.3923867,-0.023250709555345316
277,1649770838.3966556,-0.023250709555345316
278,1649770838.4009135,-0.023250709555345316
279,1649770838.4051652,-0.023250709555345316
280,1649770838.4094107,-0.023250709555345316
281,1649770838.4136605,-0.023250709555345316
282,1649770838.4179223,-0.023250709555345316
283,1649770838.422187,-0.023250709555345316
284,1649770838.426441,-0.023250709555345316
285,1649770838.4306912,-0.023250709555345316
286,1649770838.4349399,-0.023375713370159
287,1649770838.4391835,-0.023250709555345316
288,1649770838.4434252,-0.023125705740531632
289,1649770838.447669,-0.023250709555345316
290,1649770838.4519207,-0.023250709555345316
291,1649770838.456175,-0.023250709555345316
292,1649770838.460428,-0.023250709555345316
293,1649770838.4646804,-0.023375713370159
294,1649770838.468925,-0.023250709555345316
295,1649770838.473166,-0.023250709555345316
296,1649770838.4774077,-0.023250709555345316
297,1649770838.4816542,-0.023250709555345316
298,1649770838.4859066,-0.023250709555345316
299,1649770838.490155,-0.023250709555345316
300,1649770838.494399,-0.023250709555345316
301,1649770838.4986403,-0.023250709555345316
302,1649770838.502883,-0.023250709555345316
303,1649770838.507125,-0.023250709555345316
304,1649770838.511374,-0.023125705740531632
305,1649770838.5156329,-0.023250709555345316
306,1649770838.5198848,-0.023250709555345316
307,1649770838.524135,-0.023125705740531632
308,1649770838.5283804,-0.023250709555345316
309,1649770838.5326252,-0.023375713370159
310,1649770838.5368712,-0.023250709555345316
311,1649770838.5411153,-0.023125705740531632
312,1649770838.5453632,-0.023250709555345316
313,1649770838.5496194,-0.023250709555345316
314,1649770838.553872,-0.023250709555345316
315,1649770838.5581217,-0.023125705740531632
316,1649770838.5623689,-0.023125705740531632
317,1649770838.566612,-0.023250709555345316
318,1649770838.5708537,-0.023250709555345316
319,1649770838.5750983,-0.023250709555345316
320,1649770838.5793478,-0.023250709555345316
321,1649770838.5836053,-0.023250709555345316
322,1649770838.5878541,-0.023125705740531632
323,1649770838.5921023,-0.023125705740531632
324,1649770838.5963438,-0.023125705740531632
325,1649770838.6006005,-0.023250709555345316
326,1649770838.604844,-0.023250709555345316
327,1649770838.609086,-0.023125705740531632
328,1649770838.613342,-0.023250709555345316
329,1649770838.617593,-0.023125705740531632
330,1649770838.6218374,-0.023125705740531632
331,1649770838.6260812,-0.023125705740531632
332,1649770838.630325,-0.023250709555345316
333,1649770838.63457,-0.023125705740531632
334,1649770838.638811,-0.023125705740531632
335,1649770838.643054,-0.023125705740531632
336,1649770838.6473718,-0.023250709555345316
337,1649770838.6516395,-0.023250709555345316
338,1649770838.6558883,-0.023125705740531632
339,1649770838.6601334,-0.023125705740531632
340,1649770838.664374,-0.023250709555345316
341,1649770838.6686146,-0.023125705740531632
342,1649770838.6728559,-0.023125705740531632
343,1649770838.677102,-0.023125705740531632
344,1649770838.6813598,-0.023125705740531632
345,1649770838.6856139,-0.023125705740531632
346,1649770838.6898596,-0.023125705740531632
347,1649770838.6941006,-0.023125705740531632
348,1649770838.6983423,-0.023250709555345316
349,1649770838.7025983,-0.023125705740531632
350,1649770838.7070777,-0.023125705740531632
351,1649770838.711334,-0.023125705740531632
352,1649770838.7155926,-0.023125705740531632
353,1649770838.7198694,-0.023250709555345316
354,1649770838.7241313,-0.023125705740531632
355,1649770838.728402,-0.023125705740531632
356,1649770838.7326782,-0.023250709555345316
357,1649770838.7369237,-0.023125705740531632
358,1649770838.7411737,-0.023125705740531632
359,1649770838.7454255,-0.023125705740531632
360,1649770838.7496753,-0.023250709555345316
361,1649770838.7539377,-0.023125705740531632
362,1649770838.7582092,-0.023125705740531632
363,1649770838.7624757,-0.023125705740531632
364,1649770838.7667184,-0.023250709555345316
365,1649770838.770972,-0.023125705740531632
366,1649770838.7752395,-0.023125705740531632
367,1649770838.7794867,-0.023125705740531632
368,1649770838.7837307,-0.023250709555345316
369,1649770838.7879868,-0.023125705740531632
370,1649770838.7922583,-0.023125705740531632
371,1649770838.7965126,-0.023125705740531632
372,1649770838.8007627,-0.023125705740531632
373,1649770838.8050053,-0.02300070192571795
374,1649770838.8092463,-0.02300070192571795
375,1649770838.8134923,-0.023125705740531632
376,1649770838.8177483,-0.02300070192571795
377,1649770838.8220248,-0.02300070192571795
378,1649770838.8262815,-0.023125705740531632
379,1649770838.830533,-0.023125705740531632
380,1649770838.834783,-0.023125705740531632
381,1649770838.8390324,-0.02300070192571795
382,1649770838.8433595,-0.023125705740531632
383,1649770838.8477771,-0.023125705740531632
384,1649770838.8521588,-0.023125705740531632
385,1649770838.856502,-0.023125705740531632
386,1649770838.8607955,-0.02300070192571795
387,1649770838.865059,-0.023125705740531632
388,1649770838.8693295,-0.023125705740531632
389,1649770838.8735812,-0.02300070192571795
390,1649770838.877831,-0.02300070192571795
391,1649770838.8820753,-0.023125705740531632
392,1649770838.8863168,-0.023125705740531632
393,1649770838.8905602,-0.02300070192571795
394,1649770838.8948169,-0.023125705740531632
395,1649770838.8990796,-0.023125705740531632
396,1649770838.9033277,-0.023125705740531632
397,1649770838.907574,-0.02300070192571795
398,1649770838.911819,-0.023125705740531632
399,1649770838.916063,-0.02300070192571795
400,1649770838.9203095,-0.023125705740531632
401,1649770838.9245596,-0.02300070192571795
402,1649770838.9288046,-0.023125705740531632
403,1649770838.9330485,-0.023125705740531632
404,1649770838.9372902,-0.023125705740531632
405,1649770838.9415593,-0.02300070192571795
406,1649770838.945811,-0.023125705740531632
407,1649770838.9500568,-0.023125705740531632
408,1649770838.9543066,-0.023125705740531632
409,1649770838.958547,-0.02300070192571795
410,1649770838.9627879,-0.023125705740531632
411,1649770838.9670262,-0.023125705740531632
412,1649770838.9712753,-0.023125705740531632
413,1649770838.975596,-0.02300070192571795
414,1649770838.979952,-0.02300070192571795
415,1649770838.9843218,-0.023125705740531632
416,1649770838.9886854,-0.023125705740531632
417,1649770838.993036,-0.02300070192571795
418,1649770838.9973936,-0.023125705740531632
419,1649770839.0017297,-0.02300070192571795
420,1649770839.0060604,-0.02300070192571795
421,1649770839.0103896,-0.02300070192571795
422,1649770839.0147202,-0.02300070192571795
423,1649770839.019048,-0.02300070192571795
424,1649770839.023381,-0.02300070192571795
425,1649770839.0277116,-0.02300070192571795
426,1649770839.032057,-0.02300070192571795
427,1649770839.0363886,-0.02300070192571795
428,1649770839.0407312,-0.023500717184972687
429,1649770839.0450747,-0.02750083925901059
430,1649770839.0494118,-0.030625934629352702
431,1649770839.0537548,-0.032000976592303235
432,1649770839.0580962,-0.03475106051820429
433,1649770839.0624259,-0.036376110110782185
434,1649770839.0667493,-0.03725113681447798
435,1649770839.0710747,-0.03725113681447798
436,1649770839.075405,-0.03575109103671377
437,1649770839.0797303,-0.03562608722190009
438,1649770839.084133,-0.03462605670339061
439,1649770839.088498,-0.03350102237006745
440,1649770839.0930152,-0.03262599566637166
441,1649770839.097523,-0.02962590411084323
442,1649770839.1020298,-0.029250892666402174
443,1649770839.1065333,-0.029250892666402174
444,1649770839.1110334,-0.03000091555528428
445,1649770839.1155465,-0.03087594225898007
446,1649770839.1200757,-0.0322509842219306
447,1649770839.1245959,-0.033626026184881135
448,1649770839.1291096,-0.03512607196264535
449,1649770839.1336367,-0.03837617114780114
450,1649770839.138151,-0.04000122074037904
451,1649770839.1426678,-0.04150126651814326
452,1649770839.1471715,-0.04237629322183905
453,1649770839.1516972,-0.04187627796258431
454,1649770839.1562042,-0.04012622455519273
455,1649770839.160711,-0.03812616351817377
456,1649770839.1652293,-0.03612610248115482
457,1649770839.1697328,-0.03300100711081271
