,Time (s),Signal (V)
0,1649686501.7210329,0.0043751335184789575
1,1649686501.7339573,0.004500137333292642
2,1649686501.7382514,0.0043751335184789575
3,1649686501.742499,0.004750144962920011
4,1649686501.7467453,0.004875148777733695
5,1649686501.7509906,0.004625141148106326
6,1649686501.7552307,0.004250129703665274
7,1649686501.759471,0.004125125888851589
8,1649686501.7637143,0.004250129703665274
9,1649686501.76796,0.004625141148106326
10,1649686501.7722,0.004875148777733695
11,1649686501.7764428,0.004875148777733695
12,1649686501.7806864,0.004625141148106326
13,1649686501.784927,0.004500137333292642
14,1649686501.7891665,0.004625141148106326
15,1649686501.793407,0.004750144962920011
16,1649686501.7976494,0.004625141148106326
17,1649686501.8018944,0.004875148777733695
18,1649686501.8061373,0.004875148777733695
19,1649686501.8103788,0.004875148777733695
20,1649686501.8146229,0.004875148777733695
21,1649686501.818865,0.004875148777733695
22,1649686501.8231072,0.00500015259254738
23,1649686501.827348,0.00500015259254738
24,1649686501.8316042,0.00500015259254738
25,1649686501.8358471,0.004875148777733695
26,1649686501.8400888,0.004875148777733695
27,1649686501.8443298,0.004875148777733695
28,1649686501.84857,0.004875148777733695
29,1649686501.8528097,0.004875148777733695
30,1649686501.857049,0.004875148777733695
31,1649686501.8612912,0.004750144962920011
32,1649686501.865531,0.004750144962920011
33,1649686501.8697715,0.004750144962920011
34,1649686501.8740175,0.004750144962920011
35,1649686501.8783376,0.004750144962920011
36,1649686501.8826113,0.004750144962920011
37,1649686501.8869503,0.004750144962920011
38,1649686501.891285,0.004625141148106326
39,1649686501.895619,0.004625141148106326
40,1649686501.8999536,0.004625141148106326
41,1649686501.9042912,0.004625141148106326
42,1649686501.908625,0.004625141148106326
43,1649686501.9129577,0.004625141148106326
44,1649686501.9172907,0.004750144962920011
45,1649686501.921639,0.004750144962920011
46,1649686501.925991,0.004625141148106326
47,1649686501.9303284,0.004625141148106326
48,1649686501.9346638,0.004750144962920011
49,1649686501.9389963,0.004750144962920011
50,1649686501.9433289,0.004750144962920011
51,1649686501.947696,0.004750144962920011
52,1649686501.9520283,0.004875148777733695
53,1649686501.956361,0.004750144962920011
54,1649686501.9606948,0.004750144962920011
55,1649686501.9650266,0.004750144962920011
56,1649686501.9693584,0.004750144962920011
57,1649686501.9736922,0.004750144962920011
58,1649686501.9780245,0.004750144962920011
59,1649686501.9824576,0.004750144962920011
60,1649686501.9868476,0.004750144962920011
61,1649686501.9913778,0.004750144962920011
62,1649686501.9958959,0.004750144962920011
63,1649686502.0004106,0.004625141148106326
64,1649686502.004934,0.004750144962920011
65,1649686502.0094516,0.004625141148106326
66,1649686502.013976,0.004625141148106326
67,1649686502.018496,0.004750144962920011
68,1649686502.0230186,0.004625141148106326
69,1649686502.027588,0.004625141148106326
70,1649686502.0321126,0.004625141148106326
71,1649686502.0366306,0.004750144962920011
72,1649686502.041151,0.004750144962920011
73,1649686502.0456727,0.004625141148106326
74,1649686502.0501876,0.004750144962920011
75,1649686502.0547078,0.004750144962920011
76,1649686502.0592318,0.004750144962920011
77,1649686502.0637496,0.004750144962920011
78,1649686502.0682669,0.004750144962920011
79,1649686502.0727813,0.004250129703665274
80,1649686502.0772986,0.0043751335184789575
81,1649686502.0818152,0.0038751182592242197
82,1649686502.0863352,0.0038751182592242197
83,1649686502.0908465,0.004875148777733695
84,1649686502.0953,0.003500106814783166
85,1649686502.0997515,0.0033751029999694814
86,1649686502.1042075,0.004750144962920011
87,1649686502.1086597,0.004500137333292642
88,1649686502.1131103,0.004000122074037904
89,1649686502.117567,0.004125125888851589
90,1649686502.1220179,0.0043751335184789575
91,1649686502.1264684,0.004250129703665274
92,1649686502.1309185,0.0043751335184789575
93,1649686502.1353693,0.0043751335184789575
94,1649686502.139821,0.004500137333292642
95,1649686502.1442788,0.004125125888851589
96,1649686502.1487296,0.004000122074037904
97,1649686502.1531816,0.0043751335184789575
98,1649686502.157634,0.00500015259254738
99,1649686502.1620855,0.004875148777733695
100,1649686502.1665363,0.004750144962920011
101,1649686502.1709876,0.004750144962920011
102,1649686502.1754398,0.004625141148106326
103,1649686502.1798906,0.004750144962920011
104,1649686502.1844783,0.004750144962920011
105,1649686502.1889544,0.004750144962920011
106,1649686502.193479,0.004875148777733695
107,1649686502.1980069,0.004750144962920011
108,1649686502.2025242,0.004875148777733695
109,1649686502.2070434,0.004750144962920011
110,1649686502.2115598,0.004750144962920011
111,1649686502.2160778,0.004875148777733695
112,1649686502.2205973,0.004750144962920011
113,1649686502.225115,0.004875148777733695
114,1649686502.2296314,0.004750144962920011
115,1649686502.2341506,0.004750144962920011
116,1649686502.23867,0.004750144962920011
117,1649686502.243187,0.004750144962920011
118,1649686502.2477117,0.004750144962920011
119,1649686502.2522318,0.004750144962920011
120,1649686502.256751,0.004750144962920011
121,1649686502.2612696,0.004625141148106326
122,1649686502.2657893,0.004625141148106326
123,1649686502.270305,0.004750144962920011
124,1649686502.274822,0.00500015259254738
125,1649686502.2793746,0.004625141148106326
126,1649686502.2838979,0.005125156407361065
127,1649686502.288575,0.004750144962920011
128,1649686502.2931178,0.004875148777733695
129,1649686502.2975981,0.004875148777733695
130,1649686502.3020554,0.004875148777733695
131,1649686502.3065114,0.004875148777733695
132,1649686502.3109655,0.004750144962920011
133,1649686502.3154168,0.004750144962920011
134,1649686502.3198683,0.004625141148106326
135,1649686502.3243184,0.004625141148106326
136,1649686502.3287716,0.004625141148106326
137,1649686502.3332222,0.004875148777733695
138,1649686502.3376744,0.004750144962920011
139,1649686502.342125,0.004750144962920011
140,1649686502.3465762,0.004750144962920011
141,1649686502.3510282,0.004750144962920011
142,1649686502.3554788,0.004875148777733695
143,1649686502.35993,0.004875148777733695
144,1649686502.3643823,0.004875148777733695
145,1649686502.368834,0.004875148777733695
146,1649686502.3732846,0.004875148777733695
147,1649686502.3777761,0.004750144962920011
148,1649686502.38223,0.004750144962920011
149,1649686502.3866856,0.004750144962920011
150,1649686502.391165,0.004750144962920011
151,1649686502.3956196,0.004750144962920011
152,1649686502.4000735,0.00500015259254738
153,1649686502.4045281,0.004875148777733695
154,1649686502.4089856,0.004750144962920011
155,1649686502.4134405,0.004875148777733695
156,1649686502.4178944,0.004875148777733695
157,1649686502.422345,0.004750144962920011
158,1649686502.426797,0.004875148777733695
159,1649686502.4312487,0.004750144962920011
160,1649686502.4357107,0.00500015259254738
161,1649686502.4401855,0.004875148777733695
162,1649686502.4446416,0.00500015259254738
163,1649686502.4491017,0.004875148777733695
164,1649686502.453559,0.004875148777733695
165,1649686502.4580119,0.004875148777733695
166,1649686502.462463,0.00500015259254738
167,1649686502.4669127,0.004875148777733695
168,1649686502.4713652,0.00500015259254738
169,1649686502.475819,0.004625141148106326
170,1649686502.4802744,0.004875148777733695
171,1649686502.4847264,0.004875148777733695
172,1649686502.4891825,0.004875148777733695
173,1649686502.4936366,0.00500015259254738
174,1649686502.498117,0.00500015259254738
175,1649686502.5026371,0.004875148777733695
176,1649686502.5071573,0.004875148777733695
177,1649686502.5116825,0.004875148777733695
178,1649686502.5162144,0.004875148777733695
179,1649686502.5207348,0.004875148777733695
180,1649686502.5252576,0.004750144962920011
181,1649686502.529772,0.004875148777733695
182,1649686502.5342999,0.004875148777733695
183,1649686502.538823,0.004875148777733695
184,1649686502.5433428,0.004875148777733695
185,1649686502.5479746,0.004875148777733695
186,1649686502.5524952,0.004875148777733695
187,1649686502.5570116,0.004750144962920011
188,1649686502.561531,0.004750144962920011
189,1649686502.5660477,0.004875148777733695
190,1649686502.5705616,0.004875148777733695
191,1649686502.575083,0.004750144962920011
192,1649686502.5795991,0.004750144962920011
193,1649686502.5841124,0.004750144962920011
194,1649686502.588627,0.004750144962920011
195,1649686502.5931425,0.004750144962920011
196,1649686502.597649,0.004875148777733695
197,1649686502.602108,0.004875148777733695
198,1649686502.6065602,0.004750144962920011
199,1649686502.6110096,0.004750144962920011
200,1649686502.6154602,0.004875148777733695
201,1649686502.6199148,0.004875148777733695
202,1649686502.6243727,0.004750144962920011
203,1649686502.6288245,0.004750144962920011
204,1649686502.6332746,0.004875148777733695
205,1649686502.637735,0.004875148777733695
206,1649686502.6421957,0.004750144962920011
207,1649686502.6466463,0.004750144962920011
208,1649686502.6510959,0.004750144962920011
209,1649686502.6555429,0.004875148777733695
210,1649686502.6599941,0.004875148777733695
211,1649686502.6644418,0.004875148777733695
212,1649686502.6688924,0.00500015259254738
213,1649686502.673341,0.004750144962920011
214,1649686502.6778216,0.004875148777733695
215,1649686502.6822722,0.004875148777733695
216,1649686502.6867216,0.004875148777733695
217,1649686502.6911714,0.004750144962920011
218,1649686502.6957552,0.004750144962920011
219,1649686502.7002308,0.004750144962920011
220,1649686502.7047594,0.004750144962920011
221,1649686502.7092824,0.004875148777733695
222,1649686502.713799,0.004875148777733695
223,1649686502.7183137,0.004875148777733695
224,1649686502.7228258,0.004750144962920011
225,1649686502.7273402,0.004750144962920011
226,1649686502.7318883,0.004875148777733695
227,1649686502.7364063,0.004875148777733695
228,1649686502.740922,0.004875148777733695
229,1649686502.7454336,0.004750144962920011
230,1649686502.749946,0.00500015259254738
231,1649686502.7544658,0.004875148777733695
232,1649686502.7589793,0.004750144962920011
233,1649686502.763496,0.004750144962920011
234,1649686502.7680154,0.004875148777733695
235,1649686502.7725313,0.004875148777733695
236,1649686502.7770457,0.004750144962920011
237,1649686502.7815576,0.004875148777733695
238,1649686502.7860723,0.004875148777733695
239,1649686502.790588,0.004875148777733695
240,1649686502.7951064,0.004875148777733695
241,1649686502.7997687,0.004875148777733695
242,1649686502.804281,0.004875148777733695
243,1649686502.8087327,0.004750144962920011
244,1649686502.8131852,0.004750144962920011
245,1649686502.8176386,0.004875148777733695
246,1649686502.8220925,0.004750144962920011
247,1649686502.8265467,0.004875148777733695
248,1649686502.831001,0.004875148777733695
249,1649686502.8354526,0.004875148777733695
250,1649686502.839903,0.004750144962920011
251,1649686502.844352,0.004750144962920011
252,1649686502.8488047,0.004875148777733695
253,1649686502.8532605,0.004875148777733695
254,1649686502.857731,0.004875148777733695
255,1649686502.8622105,0.004875148777733695
256,1649686502.8666701,0.004875148777733695
257,1649686502.8711245,0.004875148777733695
258,1649686502.8755758,0.004750144962920011
259,1649686502.8800268,0.004875148777733695
260,1649686502.8844814,0.004875148777733695
261,1649686502.8889315,0.004875148777733695
262,1649686502.8934133,0.004875148777733695
263,1649686502.8978677,0.004750144962920011
264,1649686502.9023461,0.004875148777733695
265,1649686502.9067988,0.004750144962920011
266,1649686502.91125,0.004750144962920011
267,1649686502.9157066,0.004875148777733695
268,1649686502.920161,0.004875148777733695
269,1649686502.9246104,0.004750144962920011
270,1649686502.9290645,0.004875148777733695
271,1649686502.933519,0.004750144962920011
272,1649686502.9379747,0.004250129703665274
273,1649686502.9424226,0.00500015259254738
274,1649686502.9468732,0.004875148777733695
275,1649686502.9513242,0.004875148777733695
276,1649686502.955778,0.004875148777733695
277,1649686502.9602308,0.004750144962920011
278,1649686502.9646804,0.004750144962920011
279,1649686502.9691322,0.004875148777733695
280,1649686502.9735827,0.004875148777733695
281,1649686502.9780366,0.004875148777733695
282,1649686502.9824855,0.004875148777733695
283,1649686502.986934,0.004875148777733695
284,1649686502.991384,0.004875148777733695
285,1649686502.9958322,0.004875148777733695
286,1649686503.0002816,0.004875148777733695
287,1649686503.0048711,0.004875148777733695
288,1649686503.0093536,0.004875148777733695
289,1649686503.0138857,0.004750144962920011
290,1649686503.0184076,0.004875148777733695
291,1649686503.0229268,0.004750144962920011
292,1649686503.0274427,0.004875148777733695
293,1649686503.0319607,0.004875148777733695
294,1649686503.0364802,0.004875148777733695
295,1649686503.0409994,0.004875148777733695
296,1649686503.0455155,0.004750144962920011
297,1649686503.050035,0.004750144962920011
298,1649686503.0545504,0.004875148777733695
299,1649686503.0590694,0.004750144962920011
300,1649686503.063589,0.004750144962920011
301,1649686503.0681057,0.004875148777733695
302,1649686503.0726192,0.004875148777733695
303,1649686503.0771348,0.004750144962920011
304,1649686503.081654,0.004875148777733695
305,1649686503.0861704,0.004875148777733695
306,1649686503.0906882,0.004875148777733695
307,1649686503.0952036,0.004875148777733695
308,1649686503.0997221,0.004875148777733695
309,1649686503.1042385,0.004875148777733695
310,1649686503.1089158,0.004875148777733695
311,1649686503.1134322,0.004875148777733695
312,1649686503.1178856,0.004875148777733695
313,1649686503.1223347,0.004750144962920011
314,1649686503.1267886,0.004750144962920011
315,1649686503.1312382,0.004875148777733695
316,1649686503.1356897,0.004750144962920011
317,1649686503.14014,0.004875148777733695
318,1649686503.144598,0.004750144962920011
319,1649686503.1490498,0.004750144962920011
320,1649686503.1535,0.004875148777733695
321,1649686503.157952,0.004875148777733695
322,1649686503.1624024,0.004750144962920011
323,1649686503.166852,0.004875148777733695
324,1649686503.1713037,0.004750144962920011
325,1649686503.175754,0.004750144962920011
326,1649686503.1802058,0.004875148777733695
327,1649686503.1846836,0.00500015259254738
328,1649686503.1891372,0.00500015259254738
329,1649686503.193586,0.004875148777733695
330,1649686503.198038,0.004875148777733695
331,1649686503.2024865,0.004875148777733695
332,1649686503.206936,0.004875148777733695
333,1649686503.2114158,0.004875148777733695
334,1649686503.2158732,0.004875148777733695
335,1649686503.2203248,0.004875148777733695
336,1649686503.2247763,0.004750144962920011
337,1649686503.229228,0.004750144962920011
338,1649686503.2336786,0.004875148777733695
339,1649686503.2381284,0.004875148777733695
340,1649686503.2425768,0.004875148777733695
341,1649686503.247025,0.004875148777733695
342,1649686503.2514777,0.004875148777733695
343,1649686503.2559278,0.004750144962920011
344,1649686503.2603788,0.004875148777733695
345,1649686503.26483,0.00500015259254738
346,1649686503.2692842,0.00500015259254738
347,1649686503.2737346,0.004875148777733695
348,1649686503.2781875,0.004750144962920011
349,1649686503.2826366,0.004625141148106326
350,1649686503.2870884,0.004750144962920011
351,1649686503.291541,0.004750144962920011
352,1649686503.2959917,0.004625141148106326
353,1649686503.30044,0.00500015259254738
354,1649686503.3048909,0.004875148777733695
355,1649686503.3093436,0.004875148777733695
356,1649686503.3137963,0.004750144962920011
357,1649686503.3182652,0.004875148777733695
358,1649686503.3227856,0.004875148777733695
359,1649686503.3273005,0.004750144962920011
360,1649686503.3318157,0.004875148777733695
361,1649686503.3363297,0.00500015259254738
362,1649686503.340843,0.004875148777733695
363,1649686503.3453617,0.004875148777733695
364,1649686503.3498757,0.004875148777733695
365,1649686503.3543954,0.004875148777733695
366,1649686503.358916,0.004875148777733695
367,1649686503.363476,0.004875148777733695
368,1649686503.3679974,0.004875148777733695
369,1649686503.3725154,0.004875148777733695
370,1649686503.377033,0.004750144962920011
371,1649686503.381553,0.004750144962920011
372,1649686503.3860712,0.004750144962920011
373,1649686503.3905902,0.004875148777733695
374,1649686503.3951075,0.004750144962920011
375,1649686503.3996286,0.004875148777733695
376,1649686503.4041452,0.00500015259254738
377,1649686503.4087107,0.004875148777733695
378,1649686503.4132288,0.004875148777733695
379,1649686503.4177384,0.00500015259254738
380,1649686503.4222083,0.004875148777733695
381,1649686503.4266639,0.004875148777733695
382,1649686503.431212,0.004875148777733695
383,1649686503.4358613,0.00500015259254738
384,1649686503.4403222,0.00500015259254738
385,1649686503.4447734,0.00500015259254738
386,1649686503.4492247,0.004875148777733695
387,1649686503.4536958,0.004750144962920011
388,1649686503.4581695,0.004750144962920011
389,1649686503.4626188,0.004500137333292642
390,1649686503.4670699,0.004500137333292642
391,1649686503.471522,0.004875148777733695
392,1649686503.475972,0.005125156407361065
393,1649686503.480427,0.005125156407361065
394,1649686503.4848833,0.00500015259254738
395,1649686503.4893389,0.004875148777733695
396,1649686503.4937944,0.004875148777733695
397,1649686503.4982474,0.004875148777733695
398,1649686503.5026965,0.004875148777733695
399,1649686503.5071456,0.004750144962920011
400,1649686503.511597,0.004750144962920011
401,1649686503.5160491,0.004750144962920011
402,1649686503.520504,0.004875148777733695
403,1649686503.524956,0.004750144962920011
404,1649686503.5294127,0.004875148777733695
405,1649686503.5338671,0.004875148777733695
406,1649686503.5383213,0.004875148777733695
407,1649686503.5427685,0.004875148777733695
408,1649686503.5472267,0.004875148777733695
409,1649686503.5516891,0.004875148777733695
410,1649686503.5561416,0.004875148777733695
411,1649686503.5605924,0.00500015259254738
412,1649686503.5650473,0.00500015259254738
413,1649686503.5695019,0.004875148777733695
414,1649686503.5739505,0.004750144962920011
415,1649686503.5784018,0.004750144962920011
416,1649686503.5828516,0.004875148777733695
417,1649686503.5872998,0.004875148777733695
418,1649686503.5917504,0.004875148777733695
419,1649686503.5962014,0.00500015259254738
420,1649686503.600656,0.005125156407361065
421,1649686503.6051068,0.005125156407361065
422,1649686503.6095583,0.005250160222174749
423,1649686503.6141424,0.005250160222174749
424,1649686503.6186206,0.005500167851802118
425,1649686503.6231415,0.005500167851802118
426,1649686503.6276605,0.005375164036988434
427,1649686503.6321805,0.005375164036988434
428,1649686503.6367283,0.005500167851802118
429,1649686503.6412473,0.005375164036988434
430,1649686503.6457667,0.005125156407361065
431,1649686503.6502883,0.005125156407361065
432,1649686503.654807,0.005125156407361065
433,1649686503.659324,0.005125156407361065
434,1649686503.6638434,0.0056251716666158025
435,1649686503.668362,0.00612518692587054
436,1649686503.6728773,0.006750205999938963
437,1649686503.677396,0.007875240333262123
438,1649686503.6819172,0.01250038148136845
439,1649686503.686434,0.01637549974059267
440,1649686503.6909556,0.021000640888698997
441,1649686503.6954784,0.02575078585161901
442,1649686503.6999936,0.03037592699972533
443,1649686503.7045093,0.03412604144413587
444,1649686503.7090294,0.03737614062929166
445,1649686503.7135475,0.04000122074037904
446,1649686503.7182226,0.04375133518478958
447,1649686503.7227335,0.04487636951811273
448,1649686503.727188,0.045501388592181155
449,1649686503.7316437,0.04575139622180852
450,1649686503.7360938,0.04587640003662221
451,1649686503.7405481,0.04575139622180852
452,1649686503.7449985,0.04575139622180852
453,1649686503.7494535,0.04575139622180852
454,1649686503.7539048,0.047001434369945375
455,1649686503.7583597,0.0483764763328959
456,1649686503.7628107,0.04987652211066012
457,1649686503.7672627,0.05150157170323802
458,1649686503.771714,0.05337662892544328
459,1649686503.7761655,0.05525168614764855
