,Time (s),Signal (V),Internet (1 is true)
0,1648435266.5586412,-0.0030391552476577047,1
1,1648435266.5715482,-0.0026485183263649406,1
2,1648435266.575778,-0.0021797540208136237,1
3,1648435266.5799963,-0.0021641285439619132,1
4,1648435266.5842085,-0.002156315805536058,1
5,1648435266.5884223,-0.0021641285439619132,1
6,1648435266.5926416,-0.0022735068819238866,1
7,1648435266.5968513,-0.0021485030671102023,1
8,1648435266.6010613,-0.0021406903286843473,1
9,1648435266.60527,-0.002156315805536058,1
10,1648435266.6094809,-0.0022110049745170447,1
11,1648435266.613707,-0.0022188177129429,1
12,1648435266.6179225,-0.0021875667592394787,1
13,1648435266.6221337,-0.0021719412823877683,1
14,1648435266.6263442,-0.0022344431897946106,1
15,1648435266.6305578,-0.002195379497665334,1
16,1648435266.6347718,-0.0021406903286843473,1
17,1648435266.638983,-0.002156315805536058,1
18,1648435266.6431925,-0.0021406903286843473,1
19,1648435266.6474032,-0.002156315805536058,1
20,1648435266.6516142,-0.0021172521134067814,1
21,1648435266.655825,-0.00208600115970336,1
22,1648435266.6600366,-0.002109439374980926,1
23,1648435266.6642497,-0.002125064851832637,1
24,1648435266.66846,-0.0021172521134067814,1
25,1648435266.6726696,-0.0021172521134067814,1
26,1648435266.6768792,-0.002125064851832637,1
27,1648435266.6810892,-0.002156315805536058,1
28,1648435266.6852996,-0.0021485030671102023,1
29,1648435266.6895099,-0.0021719412823877683,1
30,1648435266.6937191,-0.0021875667592394787,1
31,1648435266.6979284,-0.0021641285439619132,1
32,1648435266.7021372,-0.002156315805536058,1
33,1648435266.7063463,-0.0021641285439619132,1
34,1648435266.7105563,-0.0021719412823877683,1
35,1648435266.7147686,-0.0021719412823877683,1
36,1648435266.718979,-0.0021485030671102023,1
37,1648435266.7231877,-0.002132877590258492,1
38,1648435266.727396,-0.002125064851832637,1
39,1648435266.7316058,-0.002125064851832637,1
40,1648435266.735816,-0.002101626636555071,1
41,1648435266.7400246,-0.002132877590258492,1
42,1648435266.7442348,-0.0021172521134067814,1
43,1648435266.748449,-0.00208600115970336,1
44,1648435266.7526581,-0.0020703756828516495,1
45,1648435266.756867,-0.002078188421277505,1
46,1648435266.7610762,-0.0020391247291482286,1
47,1648435266.7652876,-0.0019844355601672413,1
48,1648435266.7694972,-0.0019922482985930967,1
49,1648435266.773708,-0.0019922482985930967,1
50,1648435266.7779176,-0.0019375591296121098,1
51,1648435266.7821274,-0.0019766228217413862,1
52,1648435266.7863362,-0.0019922482985930967,1
53,1648435266.790546,-0.0019688100833155308,1
54,1648435266.7947545,-0.0019688100833155308,1
55,1648435266.7989635,-0.0019688100833155308,1
56,1648435266.8031807,-0.0019688100833155308,1
57,1648435266.807471,-0.0019688100833155308,1
58,1648435266.8117597,-0.0019844355601672413,1
59,1648435266.8160508,-0.0019766228217413862,1
60,1648435266.8203402,-0.0019922482985930967,1
61,1648435266.8246312,-0.0019219336527603991,1
62,1648435266.8289223,-0.0019219336527603991,1
63,1648435266.8332112,-0.0019219336527603991,1
64,1648435266.8374984,-0.0019219336527603991,1
65,1648435266.8417857,-0.0018672444837794123,1
66,1648435266.8460739,-0.0018750572222052675,1
67,1648435266.8503613,-0.0018516190069277018,1
68,1648435266.854652,-0.0018281807916501358,1
69,1648435266.858942,-0.0018281807916501358,1
70,1648435266.86323,-0.0018359935300759913,1
71,1648435266.8675184,-0.0018281807916501358,1
72,1648435266.8718097,-0.0018203680532242806,1
73,1648435266.8761024,-0.0018125553147984254,1
74,1648435266.8803933,-0.0018125553147984254,1
75,1648435266.8846858,-0.0018438062685018465,1
76,1648435266.8889987,-0.0018359935300759913,1
77,1648435266.8932893,-0.0018125553147984254,1
78,1648435266.8975818,-0.0018438062685018465,1
79,1648435266.9019592,-0.001859431745353557,1
80,1648435266.9062743,-0.001859431745353557,1
81,1648435266.910734,-0.0018672444837794123,1
82,1648435266.91519,-0.001859431745353557,1
83,1648435266.9196405,-0.0018516190069277018,1
84,1648435266.9240944,-0.0018203680532242806,1
85,1648435266.9285448,-0.0018047425763725701,1
86,1648435266.932994,-0.0018281807916501358,1
87,1648435266.937443,-0.0018281807916501358,1
88,1648435266.9418907,-0.0017969298379467147,1
89,1648435266.9463406,-0.0017656788842432935,1
90,1648435266.95079,-0.0017422406689657278,1
91,1648435266.955242,-0.0017344279305398726,1
92,1648435266.9596908,-0.001773491622669149,1
93,1648435266.9641411,-0.0017656788842432935,1
94,1648435266.9685912,-0.0017344279305398726,1
95,1648435266.973039,-0.0017656788842432935,1
96,1648435266.9774868,-0.0017891170995208594,1
97,1648435266.9819338,-0.0017813043610950042,1
98,1648435266.9863822,-0.0017656788842432935,1
99,1648435266.9908302,-0.0017969298379467147,1
100,1648435266.9952776,-0.0017969298379467147,1
101,1648435266.9997253,-0.0018047425763725701,1
102,1648435267.0042076,-0.0018047425763725701,1
103,1648435267.0086603,-0.0018125553147984254,1
104,1648435267.0131083,-0.0018203680532242806,1
105,1648435267.017594,-0.0017969298379467147,1
106,1648435267.0220459,-0.0018047425763725701,1
107,1648435267.0264962,-0.0018047425763725701,1
108,1648435267.0309465,-0.0017813043610950042,1
109,1648435267.0353994,-0.0018047425763725701,1
110,1648435267.0398514,-0.0018125553147984254,1
111,1648435267.044303,-0.0018047425763725701,1
112,1648435267.0487518,-0.0017969298379467147,1
113,1648435267.0531988,-0.0018281807916501358,1
114,1648435267.0576515,-0.0018359935300759913,1
115,1648435267.062098,-0.0018438062685018465,1
116,1648435267.0665443,-0.0018516190069277018,1
117,1648435267.0709891,-0.0018672444837794123,1
118,1648435267.0754404,-0.0018750572222052675,1
119,1648435267.0798879,-0.0018828699606311227,1
120,1648435267.0843384,-0.0018984954374828332,1
121,1648435267.0887854,-0.0018828699606311227,1
122,1648435267.0932326,-0.0018750572222052675,1
123,1648435267.0976822,-0.0018984954374828332,1
124,1648435267.1021302,-0.0019297463911862544,1
125,1648435267.106605,-0.0019609973448896758,1
126,1648435267.1110556,-0.0019609973448896758,1
127,1648435267.1155133,-0.0019844355601672413,1
128,1648435267.1199622,-0.0019922482985930967,1
129,1648435267.124414,-0.0019844355601672413,1
130,1648435267.1288636,-0.0019844355601672413,1
131,1648435267.1333122,-0.002000061037018952,1
132,1648435267.1377618,-0.0019844355601672413,1
133,1648435267.142208,-0.0019922482985930967,1
134,1648435267.1466565,-0.0019844355601672413,1
135,1648435267.1511033,-0.002007873775444807,1
136,1648435267.155553,-0.0019922482985930967,1
137,1648435267.1599994,-0.0019844355601672413,1
138,1648435267.1644838,-0.0020156865138706626,1
139,1648435267.168931,-0.002007873775444807,1
140,1648435267.173378,-0.0019688100833155308,1
141,1648435267.1778624,-0.0019922482985930967,1
142,1648435267.1823118,-0.0019766228217413862,1
143,1648435267.186758,-0.0019766228217413862,1
144,1648435267.191206,-0.001945371868037965,1
145,1648435267.195655,-0.0019844355601672413,1
146,1648435267.2001028,-0.0019688100833155308,1
147,1648435267.2045527,-0.0019531846064638203,1
148,1648435267.2090278,-0.0019219336527603991,1
149,1648435267.213488,-0.0019219336527603991,1
150,1648435267.2179413,-0.0019063081759086887,1
151,1648435267.2223883,-0.001914120914334544,1
152,1648435267.226835,-0.0019063081759086887,1
153,1648435267.2312815,-0.0019063081759086887,1
154,1648435267.2357287,-0.0018750572222052675,1
155,1648435267.2401764,-0.0018984954374828332,1
156,1648435267.2446232,-0.0018828699606311227,1
157,1648435267.2490714,-0.0018516190069277018,1
158,1648435267.2535212,-0.0018281807916501358,1
159,1648435267.2579699,-0.0018203680532242806,1
160,1648435267.262417,-0.0017969298379467147,1
161,1648435267.2668638,-0.0017891170995208594,1
162,1648435267.2713108,-0.001773491622669149,1
163,1648435267.2757573,-0.0017656788842432935,1
164,1648435267.2802024,-0.0017656788842432935,1
165,1648435267.2846522,-0.0017578661458174383,1
166,1648435267.2890992,-0.0017813043610950042,1
167,1648435267.2935505,-0.0017969298379467147,1
168,1648435267.2979975,-0.001750053407391583,1
169,1648435267.3024445,-0.0017656788842432935,1
170,1648435267.3068905,-0.0017656788842432935,1
171,1648435267.311366,-0.0017422406689657278,1
172,1648435267.3158221,-0.001695364238410596,1
173,1648435267.320269,-0.001695364238410596,1
174,1648435267.3247173,-0.0017109897152623066,1
175,1648435267.329168,-0.001726615192114017,1
176,1648435267.3336177,-0.001695364238410596,1
177,1648435267.3380923,-0.001695364238410596,1
178,1648435267.3425398,-0.0017031769768364514,1
179,1648435267.3469868,-0.001773491622669149,1
180,1648435267.3514333,-0.0016719260231330302,1
181,1648435267.3558834,-0.001695364238410596,1
182,1648435267.3603303,-0.001695364238410596,1
183,1648435267.3647816,-0.0017031769768364514,1
184,1648435267.3692267,-0.001695364238410596,1
185,1648435267.3736715,-0.0017109897152623066,1
186,1648435267.3781161,-0.0016563005462813195,1
187,1648435267.3825624,-0.0016797387615588855,1
188,1648435267.3870084,-0.0017188024536881619,1
189,1648435267.3914537,-0.0017031769768364514,1
190,1648435267.3958986,-0.001726615192114017,1
191,1648435267.400345,-0.0017578661458174383,1
192,1648435267.4047964,-0.0017813043610950042,1
193,1648435267.4096136,-0.0017891170995208594,1
194,1648435267.4141061,-0.0017813043610950042,1
195,1648435267.4185588,-0.0018438062685018465,1
196,1648435267.423009,-0.001859431745353557,1
197,1648435267.4274566,-0.0018281807916501358,1
198,1648435267.431906,-0.0018281807916501358,1
199,1648435267.4363565,-0.0018281807916501358,1
200,1648435267.4408047,-0.0017969298379467147,1
201,1648435267.445251,-0.0018438062685018465,1
202,1648435267.4497042,-0.0018672444837794123,1
203,1648435267.454157,-0.0018281807916501358,1
204,1648435267.458605,-0.0018047425763725701,1
205,1648435267.463051,-0.0018125553147984254,1
206,1648435267.4674988,-0.0018125553147984254,1
207,1648435267.4719462,-0.0017969298379467147,1
208,1648435267.4763932,-0.0017969298379467147,1
209,1648435267.4808393,-0.0018047425763725701,1
210,1648435267.4852917,-0.0018281807916501358,1
211,1648435267.48974,-0.0018438062685018465,1
212,1648435267.4941905,-0.0018516190069277018,1
213,1648435267.4986377,-0.0018672444837794123,1
214,1648435267.5030828,-0.0018750572222052675,1
215,1648435267.50753,-0.0018750572222052675,1
216,1648435267.5119805,-0.0018984954374828332,1
217,1648435267.51646,-0.001859431745353557,1
218,1648435267.5209105,-0.0018281807916501358,1
219,1648435267.5253592,-0.0018281807916501358,1
220,1648435267.5298076,-0.0018281807916501358,1
221,1648435267.534258,-0.0018359935300759913,1
222,1648435267.5387037,-0.0018125553147984254,1
223,1648435267.5431514,-0.0018047425763725701,1
224,1648435267.547653,-0.0018047425763725701,1
225,1648435267.55212,-0.0018047425763725701,1
226,1648435267.5565796,-0.0017969298379467147,1
227,1648435267.5610306,-0.0017969298379467147,1
228,1648435267.565482,-0.0017656788842432935,1
229,1648435267.569933,-0.001773491622669149,1
230,1648435267.5743794,-0.0018125553147984254,1
231,1648435267.5788274,-0.002195379497665334,1
232,1648435267.583275,-0.0017109897152623066,1
233,1648435267.5877273,-0.0017109897152623066,1
234,1648435267.592177,-0.0017422406689657278,1
235,1648435267.5966263,-0.0017109897152623066,1
236,1648435267.6010728,-0.0017031769768364514,1
237,1648435267.6055264,-0.0016875514999847407,1
238,1648435267.609974,-0.0017109897152623066,1
239,1648435267.614428,-0.0016797387615588855,1
240,1648435267.6188948,-0.0016797387615588855,1
241,1648435267.6233528,-0.001695364238410596,1
242,1648435267.6277494,-0.001695364238410596,1
243,1648435267.6321416,-0.0016875514999847407,1
244,1648435267.6365354,-0.0017031769768364514,1
245,1648435267.6409252,-0.0016875514999847407,1
246,1648435267.6453142,-0.0016797387615588855,1
247,1648435267.649704,-0.0016875514999847407,1
248,1648435267.654095,-0.0017422406689657278,1
249,1648435267.6584892,-0.0016328623310037536,1
250,1648435267.6628802,-0.0016328623310037536,1
251,1648435267.6672704,-0.0016641132847071748,1
252,1648435267.671663,-0.0016484878078554643,1
253,1648435267.676053,-0.0016484878078554643,1
254,1648435267.6804438,-0.0015937986388744774,1
255,1648435267.6848376,-0.001578173162022767,1
256,1648435267.6892285,-0.0015937986388744774,1
257,1648435267.6936219,-0.0015703604235969117,1
258,1648435267.6980138,-0.0015703604235969117,1
259,1648435267.7024057,-0.0015703604235969117,1
260,1648435267.7068,-0.001578173162022767,1
261,1648435267.71119,-0.001554734946745201,1
262,1648435267.7155833,-0.0015937986388744774,1
263,1648435267.720096,-0.0015859859004486222,1
264,1648435267.7245,-0.0015937986388744774,1
265,1648435267.7289536,-0.0016172368541520433,1
266,1648435267.7334013,-0.0016016113773003329,1
267,1648435267.7378886,-0.0015937986388744774,1
268,1648435267.7423394,-0.0015625476851710562,1
269,1648435267.746787,-0.0015859859004486222,1
270,1648435267.751237,-0.001578173162022767,1
271,1648435267.755692,-0.0016719260231330302,1
272,1648435267.7601457,-0.0015391094698934905,1
273,1648435267.7645986,-0.0015156712546159246,1
274,1648435267.769047,-0.0015078585161900694,1
275,1648435267.7734978,-0.0015078585161900694,1
276,1648435267.7779472,-0.0015000457777642141,1
277,1648435267.7823944,-0.0015156712546159246,1
278,1648435267.7868428,-0.001468794824060793,1
279,1648435267.7912934,-0.0014766075624866482,1
280,1648435267.7957435,-0.0014766075624866482,1
281,1648435267.8001916,-0.0014766075624866482,1
282,1648435267.804644,-0.0013828547013763847,1
283,1648435267.8090918,-0.00139066743980224,1
284,1648435267.813544,-0.00139066743980224,1
285,1648435267.8179922,-0.001359416486098819,1
286,1648435267.8224673,-0.0013437910092471085,1
287,1648435267.8269186,-0.00139066743980224,1
288,1648435267.831369,-0.00139066743980224,1
289,1648435267.8358176,-0.0013828547013763847,1
290,1648435267.8402646,-0.0013828547013763847,1
291,1648435267.8447158,-0.0014141056550798059,1
292,1648435267.8491662,-0.0013672292245246744,1
293,1648435267.8536186,-0.0014141056550798059,1
294,1648435267.8580675,-0.0014766075624866482,1
295,1648435267.862547,-0.00139066743980224,1
296,1648435267.8669972,-0.0013750419629505295,1
297,1648435267.8714473,-0.0013516037476729637,1
298,1648435267.8758955,-0.0013672292245246744,1
299,1648435267.8803458,-0.0013125400555436873,1
300,1648435267.8847997,-0.0012969145786919769,1
301,1648435267.889247,-0.001273476363414411,1
302,1648435267.893699,-0.001273476363414411,1
303,1648435267.8981502,-0.0012578508865627002,1
304,1648435267.9025996,-0.0012656636249885557,1
305,1648435267.9070525,-0.0012969145786919769,1
306,1648435267.9115107,-0.0012891018402661214,1
307,1648435267.9159646,-0.001273476363414411,1
308,1648435267.9204357,-0.0012891018402661214,1
309,1648435267.924924,-0.001304727317117832,1
310,1648435267.9293878,-0.001273476363414411,1
311,1648435267.933843,-0.0012656636249885557,1
312,1648435267.9382937,-0.001273476363414411,1
313,1648435267.942741,-0.0012578508865627002,1
314,1648435267.9471998,-0.0012422254097109898,1
315,1648435267.9516482,-0.0012344126712851345,1
316,1648435267.956102,-0.0012578508865627002,1
317,1648435267.9605498,-0.001359416486098819,1
318,1648435267.9650016,-0.0012969145786919769,1
319,1648435267.9694524,-0.0013437910092471085,1
320,1648435267.9739032,-0.0013281655323953978,1
321,1648435267.9783611,-0.001359416486098819,1
322,1648435267.9828098,-0.001359416486098819,1
323,1648435267.987262,-0.0013672292245246744,1
324,1648435267.9917092,-0.0013437910092471085,1
325,1648435267.9961593,-0.0013828547013763847,1
326,1648435268.0006073,-0.001359416486098819,1
327,1648435268.0050592,-0.0013750419629505295,1
328,1648435268.0095162,-0.001304727317117832,1
329,1648435268.013973,-0.0013359782708212533,1
330,1648435268.0184221,-0.001359416486098819,1
331,1648435268.0228693,-0.001359416486098819,1
332,1648435268.027347,-0.0013437910092471085,1
333,1648435268.0318003,-0.0013750419629505295,1
334,1648435268.036254,-0.0013750419629505295,1
335,1648435268.0407014,-0.0013672292245246744,1
336,1648435268.0451524,-0.0013437910092471085,1
337,1648435268.0496106,-0.0013828547013763847,1
338,1648435268.054063,-0.001359416486098819,1
339,1648435268.0585117,-0.0013672292245246744,1
340,1648435268.06296,-0.001468794824060793,1
341,1648435268.067409,-0.0013203527939695426,1
342,1648435268.0718565,-0.001359416486098819,1
343,1648435268.0763116,-0.0013359782708212533,1
344,1648435268.0807595,-0.001359416486098819,1
345,1648435268.0852146,-0.0013672292245246744,1
346,1648435268.0896633,-0.0013437910092471085,1
347,1648435268.094114,-0.0013437910092471085,1
348,1648435268.0985544,-0.0013516037476729637,1
349,1648435268.102995,-0.0013125400555436873,1
350,1648435268.107439,-0.0013359782708212533,1
351,1648435268.111892,-0.0013516037476729637,1
352,1648435268.1163392,-0.0013125400555436873,1
353,1648435268.1207886,-0.001250038148136845,1
354,1648435268.1252353,-0.0012422254097109898,1
355,1648435268.1297128,-0.0012422254097109898,1
356,1648435268.1341765,-0.0011953489791558581,1
357,1648435268.138628,-0.0012187871944334238,1
358,1648435268.1430755,-0.0012344126712851345,1
359,1648435268.1475213,-0.0012344126712851345,1
360,1648435268.1519725,-0.0012422254097109898,1
361,1648435268.156427,-0.0012344126712851345,1
362,1648435268.160874,-0.001226599932859279,1
363,1648435268.1653204,-0.0013281655323953978,1
364,1648435268.1697667,-0.0012344126712851345,1
365,1648435268.174219,-0.001226599932859279,1
366,1648435268.1786664,-0.0011953489791558581,1
367,1648435268.1831224,-0.0011797235023041474,1
368,1648435268.1875994,-0.0012109744560075686,1
369,1648435268.19205,-0.001226599932859279,1
370,1648435268.1964982,-0.0011875362407300027,1
371,1648435268.2009451,-0.0011719107638782922,1
372,1648435268.2053967,-0.0011875362407300027,1
373,1648435268.2098458,-0.0011797235023041474,1
374,1648435268.2142968,-0.001140659810174871,1
375,1648435268.2187438,-0.0011562852870265815,1
376,1648435268.2231896,-0.0011484725486007263,1
377,1648435268.2276356,-0.0011250343333231605,1
378,1648435268.2321131,-0.0010859706411938841,1
379,1648435268.236567,-0.00110940885647145,1
380,1648435268.2410169,-0.0011015961180455948,1
381,1648435268.245466,-0.0011015961180455948,1
382,1648435268.2499142,-0.0010625324259163184,1
383,1648435268.2543635,-0.0010312814722128973,1
384,1648435268.2588098,-0.0010234687337870418,1
385,1648435268.2632554,-0.0010234687337870418,1
386,1648435268.2677038,-0.0010859706411938841,1
387,1648435268.272151,-0.001000030518509476,1
388,1648435268.2765973,-0.0009922177800836206,1
389,1648435268.2810438,-0.001000030518509476,1
390,1648435268.2854993,-0.0010156559953611866,1
391,1648435268.2899475,-0.001054719687490463,1
392,1648435268.2943974,-0.0010078432569353313,1
393,1648435268.2988894,-0.0010156559953611866,1
394,1648435268.3033473,-0.0010469069490646077,1
395,1648435268.3077955,-0.0010156559953611866,1
396,1648435268.3122656,-0.0010234687337870418,1
397,1648435268.3167102,-0.0010390942106387525,1
398,1648435268.3211584,-0.0010234687337870418,1
399,1648435268.3256052,-0.0010234687337870418,1
400,1648435268.3300512,-0.0010078432569353313,1
401,1648435268.334496,-0.0009922177800836206,1
402,1648435268.3389432,-0.0009844050416577654,1
403,1648435268.34339,-0.0009922177800836206,1
404,1648435268.3478863,-0.0010234687337870418,1
405,1648435268.352333,-0.001000030518509476,1
406,1648435268.3567886,-0.0009922177800836206,1
407,1648435268.3612366,-0.0009922177800836206,1
408,1648435268.3656864,-0.0010078432569353313,1
409,1648435268.370132,-0.0011015961180455948,1
410,1648435268.3745844,-0.0009844050416577654,1
411,1648435268.3790317,-0.0010078432569353313,1
412,1648435268.3834813,-0.0010312814722128973,1
413,1648435268.3879273,-0.0009844050416577654,1
414,1648435268.3923748,-0.0009765923032319102,1
415,1648435268.3968205,-0.0010156559953611866,1
416,1648435268.4012656,-0.0009844050416577654,1
417,1648435268.4057162,-0.0009609668263801996,1
418,1648435268.4101639,-0.0009687795648060549,1
419,1648435268.4146147,-0.0010156559953611866,1
420,1648435268.419063,-0.0009922177800836206,1
421,1648435268.4235103,-0.0010234687337870418,1
