,Time (s),Signal (V)
0,1647615978.491105,-0.16988018433179725
1,1647615978.5039585,-0.17225525681325726
2,1647615978.5081856,-0.17500534073915833
3,1647615978.5123966,-0.17713040559099094
4,1647615978.516607,-0.17850544755394146
5,1647615978.5208154,-0.1790054628131962
6,1647615978.525022,-0.17950547807245093
7,1647615978.5292282,-0.1797554857020783
8,1647615978.533437,-0.17938047425763726
9,1647615978.5376632,-0.17863045136875516
10,1647615978.5418744,-0.177505417035432
11,1647615978.5460844,-0.1766303903317362
12,1647615978.5502934,-0.1758803674428541
13,1647615978.5545022,-0.17550535599841305
14,1647615978.5587113,-0.17488033692434463
15,1647615978.5629196,-0.1742553178502762
16,1647615978.5671294,-0.17375530259102148
17,1647615978.5713396,-0.1735052949613941
18,1647615978.5755494,-0.1735052949613941
19,1647615978.5797584,-0.1742553178502762
20,1647615978.5839667,-0.17538035218359935
21,1647615978.5881717,-0.17613037507248147
22,1647615978.5923786,-0.17688039796136357
23,1647615978.5965922,-0.1776304208502457
24,1647615978.6008017,-0.1780054322946867
25,1647615978.6050112,-0.17850544755394146
26,1647615978.6092203,-0.1790054628131962
27,1647615978.6134288,-0.17950547807245093
28,1647615978.6176374,-0.18013049714651938
29,1647615978.621846,-0.1806305124057741
30,1647615978.6260543,-0.18088052003540148
31,1647615978.630262,-0.18125553147984252
32,1647615978.63447,-0.18175554673909725
33,1647615978.638678,-0.18213055818353832
34,1647615978.6428864,-0.18213055818353832
35,1647615978.6470964,-0.1816305429242836
36,1647615978.6513062,-0.18113052766502885
37,1647615978.6555154,-0.1806305124057741
38,1647615978.6597235,-0.18013049714651938
39,1647615978.6639316,-0.17963048188726463
40,1647615978.66814,-0.17913046662800988
41,1647615978.6723483,-0.17888045899838254
42,1647615978.6765559,-0.17875545518356883
43,1647615978.6809807,-0.17875545518356883
44,1647615978.6851969,-0.17925547044282356
45,1647615978.6894057,-0.17950547807245093
46,1647615978.6936138,-0.179880489516892
47,1647615978.6978233,-0.18025550096133305
48,1647615978.702031,-0.18088052003540148
49,1647615978.7062383,-0.18138053529465623
50,1647615978.7104464,-0.18188055055391095
51,1647615978.714654,-0.182255561998352
52,1647615978.7188618,-0.18250556962797937
53,1647615978.7230692,-0.18275557725760674
54,1647615978.7272768,-0.18263057344279307
55,1647615978.7314866,-0.18213055818353832
56,1647615978.7356942,-0.1816305429242836
57,1647615978.739901,-0.18125553147984252
58,1647615978.744109,-0.1806305124057741
59,1647615978.748317,-0.18013049714651938
60,1647615978.7525237,-0.1797554857020783
61,1647615978.7567315,-0.17950547807245093
62,1647615978.7609384,-0.17950547807245093
63,1647615978.7651656,-0.17950547807245093
64,1647615978.7693744,-0.1805055085909604
65,1647615978.7735822,-0.18125553147984252
66,1647615978.7777905,-0.18200555436872462
67,1647615978.7819982,-0.18275557725760674
68,1647615978.7862055,-0.18338059633167517
69,1647615978.7904134,-0.18388061159092992
70,1647615978.7946208,-0.18425562303537096
71,1647615978.7988267,-0.1845056306649983
72,1647615978.8030465,-0.184630634479812
73,1647615978.8072612,-0.18425562303537096
74,1647615978.81147,-0.1841306192205573
75,1647615978.8156781,-0.18363060396130254
76,1647615978.819887,-0.1830055848872341
77,1647615978.8240948,-0.18250556962797937
78,1647615978.8283026,-0.18200555436872462
79,1647615978.832512,-0.1815055391094699
80,1647615978.8367207,-0.18100552385021515
81,1647615978.8409286,-0.18075551622058778
82,1647615978.845138,-0.1805055085909604
83,1647615978.8493454,-0.18013049714651938
84,1647615978.853553,-0.18025550096133305
85,1647615978.8577614,-0.1806305124057741
86,1647615978.8619692,-0.18075551622058778
87,1647615978.866177,-0.18088052003540148
88,1647615978.8703847,-0.18100552385021515
89,1647615978.874593,-0.18100552385021515
90,1647615978.8788004,-0.18100552385021515
91,1647615978.8830075,-0.18100552385021515
92,1647615978.8872144,-0.18113052766502885
93,1647615978.8914247,-0.18088052003540148
94,1647615978.8956332,-0.18088052003540148
95,1647615978.899841,-0.18075551622058778
96,1647615978.904049,-0.1805055085909604
97,1647615978.9082565,-0.1805055085909604
98,1647615978.9124646,-0.18038050477614673
99,1647615978.9166722,-0.18038050477614673
100,1647615978.9208803,-0.1805055085909604
101,1647615978.9250898,-0.1805055085909604
102,1647615978.929298,-0.1806305124057741
103,1647615978.9335063,-0.18088052003540148
104,1647615978.937714,-0.18113052766502885
105,1647615978.941922,-0.18188055055391095
106,1647615978.9461293,-0.1823805658131657
107,1647615978.950337,-0.18288058107242045
108,1647615978.9545438,-0.18338059633167517
109,1647615978.9587514,-0.18375560777611621
110,1647615978.9629586,-0.1841306192205573
111,1647615978.9671662,-0.18438062685018464
112,1647615978.9713755,-0.1845056306649983
113,1647615978.975583,-0.1845056306649983
114,1647615978.9797904,-0.18475563829462568
115,1647615978.9839966,-0.18475563829462568
116,1647615978.9882045,-0.184630634479812
117,1647615978.9924119,-0.184630634479812
118,1647615978.9966187,-0.184630634479812
119,1647615979.0008264,-0.184630634479812
120,1647615979.005033,-0.18488064210943939
121,1647615979.0092509,-0.18488064210943939
122,1647615979.0135622,-0.18500564592425306
123,1647615979.01788,-0.18513064973906676
124,1647615979.0221937,-0.18513064973906676
125,1647615979.0265062,-0.18513064973906676
126,1647615979.0308194,-0.18500564592425306
127,1647615979.0351365,-0.18500564592425306
128,1647615979.0394514,-0.1841306192205573
129,1647615979.0437636,-0.1776304208502457
130,1647615979.0480764,-0.16600506607257304
131,1647615979.0523891,-0.1533796807763909
132,1647615979.0567021,-0.1371291848506119
133,1647615979.0610178,-0.1170035706656087
134,1647615979.0653305,-0.09362785729544969
135,1647615979.0696435,-0.06850209051789911
136,1647615979.0739555,-0.04050123599963378
137,1647615979.0782702,-0.005500167851802118
138,1647615979.0825844,0.0952529068880276
139,1647615979.0868983,0.15987987914670249
140,1647615979.0912151,0.23413214514603106
141,1647615979.0955276,0.32901004058961764
142,1647615979.0998402,0.43188818018127995
143,1647615979.104152,0.5236409802545243
144,1647615979.1084657,0.5962681966612752
145,1647615979.1127923,0.651769890438551
146,1647615979.1172369,0.6943961912900174
147,1647615979.1216795,0.7341474044007691
148,1647615979.1261227,0.7733986022522661
149,1647615979.130568,0.8474008606219672
150,1647615979.1350143,0.8769017609179969
151,1647615979.139457,0.899777459028901
152,1647615979.1438987,0.9137778862880338
153,1647615979.1483417,0.9196530655842768
154,1647615979.1527867,0.918028015991699
155,1647615979.1572208,0.9087777336954864
156,1647615979.161662,0.8887771233252968
157,1647615979.1661131,0.857776177251503
158,1647615979.170559,0.7473978087710197
159,1647615979.1750028,0.6695204321420941
160,1647615979.1794474,0.6458947111423078
161,1647615979.1838899,0.6440196539201025
162,1647615979.1883352,0.6431446272164069
163,1647615979.192786,0.6417695852534563
164,1647615979.1972299,0.640269539475692
165,1647615979.201673,0.6385194860683004
166,1647615979.2061148,0.6370194402905363
167,1647615979.2105606,0.6355193945127721
168,1647615979.2150052,0.6321442915128026
169,1647615979.2194417,0.6302692342905972
170,1647615979.2238822,0.6285191808832057
171,1647615979.2283356,0.6270191351054415
172,1647615979.2327824,0.6253940855128636
173,1647615979.2372272,0.6238940397350994
174,1647615979.241677,0.6227690054017762
175,1647615979.2461243,0.6218939786980805
176,1647615979.25057,0.6211439558091983
177,1647615979.2550137,0.6197689138462478
178,1647615979.2594573,0.619268898586993
179,1647615979.263906,0.6185188756981109
180,1647615979.2683506,0.617643848994415
181,1647615979.2727954,0.6167688222907194
182,1647615979.2772384,0.6158937955870236
183,1647615979.2816849,0.6148937650685141
184,1647615979.286129,0.6137687307351909
185,1647615979.290573,0.6126436964018677
186,1647615979.295016,0.6102686239204077
187,1647615979.2994583,0.6091435895870846
188,1647615979.3039038,0.6080185552537614
189,1647615979.3083477,0.6071435285500656
190,1647615979.3127909,0.6063935056611836
191,1647615979.3172352,0.6056434827723014
192,1647615979.3216822,0.6051434675130467
193,1647615979.3261254,0.6045184484389783
194,1647615979.33062,0.6038934293649099
195,1647615979.335098,0.6025183874019593
196,1647615979.339546,0.6016433606982634
197,1647615979.3439896,0.6007683339945677
198,1647615979.3484344,0.5996432996612445
199,1647615979.3528788,0.598643269142735
200,1647615979.3573241,0.597893246253853
201,1647615979.361767,0.5970182195501571
202,1647615979.3662136,0.5960181890316477
203,1647615979.3706572,0.5950181585131382
204,1647615979.375137,0.5940181279946287
205,1647615979.3795817,0.5922680745872372
206,1647615979.3840258,0.591518051698355
207,1647615979.3884683,0.5908930326242867
208,1647615979.3929136,0.5903930173650319
209,1647615979.3973582,0.5901430097354046
210,1647615979.4018016,0.5897679982909635
211,1647615979.4062452,0.5895179906613361
212,1647615979.4106896,0.5891429792168951
213,1647615979.4151373,0.5888929715872677
214,1647615979.4195826,0.5880179448835718
215,1647615979.4240258,0.5876429334391309
216,1647615979.4284642,0.5870179143650623
217,1647615979.4329035,0.5863928952909939
218,1647615979.4373522,0.585642872402112
219,1647615979.4417965,0.5848928495132298
220,1647615979.4462407,0.5841428266243477
221,1647615979.4506862,0.5835178075502793
222,1647615979.455137,0.5828927884762108
223,1647615979.4595954,0.581642750328074
224,1647615979.4640474,0.5811427350688192
225,1647615979.468499,0.5806427198095646
226,1647615979.4729433,0.5801427045503098
227,1647615979.4773874,0.5797676931058687
228,1647615979.481832,0.579267677846614
229,1647615979.4862773,0.578892666402173
230,1647615979.4907212,0.5783926511429182
231,1647615979.495169,0.5778926358836635
232,1647615979.4996126,0.5770176091799676
233,1647615979.5040574,0.5763925901058992
234,1647615979.5085034,0.5757675710318307
235,1647615979.512949,0.5752675557725762
236,1647615979.5173934,0.5746425366985077
237,1647615979.5218349,0.5740175176244393
238,1647615979.5262241,0.5736425061799982
239,1647615979.5306144,0.5731424909207434
240,1647615979.5350032,0.5726424756614887
241,1647615979.5393918,0.5721424604022339
242,1647615979.543781,0.5713924375133518
243,1647615979.5481708,0.5711424298837244
244,1647615979.5525594,0.5707674184392834
245,1647615979.5569482,0.5707674184392834
246,1647615979.561338,0.570517410809656
247,1647615979.5657258,0.5702674031800288
248,1647615979.5701156,0.570142399365215
249,1647615979.574504,0.5698923917355877
250,1647615979.5788944,0.5698923917355877
251,1647615979.5832832,0.5707674184392834
252,1647615979.5876982,0.591518051698355
253,1647615979.5920892,0.6730205389568774
254,1647615979.5964787,0.7057715384380627
255,1647615979.6008708,0.7196469618823818
256,1647615979.6052606,0.7261471602526933
257,1647615979.609709,0.733772392956328
258,1647615979.6140993,0.748022827845088
259,1647615979.6184921,0.7628982818079165
260,1647615979.6230245,0.7770237128818629
261,1647615979.6275225,0.7877740409558398
262,1647615979.6319678,0.808274666585284
263,1647615979.6364052,0.8133998229926451
264,1647615979.640842,0.8147748649555956
265,1647615979.6453264,0.8136498306222725
266,1647615979.6498084,0.8118997772148808
267,1647615979.6542542,0.8101497238074892
268,1647615979.6586983,0.8085246742149114
269,1647615979.663172,0.8066496169927061
270,1647615979.6676195,0.8046495559556872
271,1647615979.6720645,0.8006494338816492
272,1647615979.6765082,0.7988993804742577
273,1647615979.6809494,0.7973993346964935
274,1647615979.6854272,0.7997744071779535
275,1647615979.6898718,0.8199000213629567
276,1647615979.6943145,0.8606512649922178
277,1647615979.6987576,0.9004024781029695
278,1647615979.7032042,0.93027838984344
279,1647615979.7076476,0.9571542100283822
280,1647615979.712091,0.9729046906949065
281,1647615979.7165349,0.9866551103244118
282,1647615979.7210035,0.9871551255836665
283,1647615979.725559,0.9870301217688529
284,1647615979.730015,0.9871551255836665
285,1647615979.7344637,0.9879051484725486
286,1647615979.7389128,0.9899052095095676
287,1647615979.7433584,0.9947803582873013
288,1647615979.7478042,1.0026555986205634
289,1647615979.752248,1.011405865657521
290,1647615979.7566943,1.026531327249977
291,1647615979.7611382,1.0431568346201971
292,1647615979.7656372,1.0697826471755119
293,1647615979.7700818,1.096283455916013
294,1647615979.7745287,1.11178392895291
295,1647615979.7790022,1.1222842493972593
296,1647615979.7834492,1.1294094668416395
297,1647615979.7878947,1.1377847224341564
298,1647615979.7923412,1.1475350199896237
299,1647615979.7967858,1.1591603747672963
300,1647615979.8012304,1.162910489211707
301,1647615979.805705,1.1666606036561176
302,1647615979.8101523,1.1741608325449386
303,1647615979.8145993,1.1892862941373943
304,1647615979.8190432,1.217162144840846
305,1647615979.823488,1.2386628009887999
306,1647615979.8279982,1.2457880184331798
307,1647615979.8324432,1.249663136692404
308,1647615979.8368874,1.2552883083590198
309,1647615979.8413303,1.2582883999145482
310,1647615979.8457713,1.2646635944700462
311,1647615979.8502374,1.2784140140995515
312,1647615979.854679,1.2945395062105167
313,1647615979.8591294,1.3064148686178167
314,1647615979.8635736,1.3152901394695884
315,1647615979.8680496,1.3220403454695273
316,1647615979.8724942,1.3306656086916715
317,1647615979.876939,1.3574164250618
318,1647615979.881384,1.3684167607654043
319,1647615979.8858306,1.3782920621356853
320,1647615979.890276,1.3871673329874568
321,1647615979.8947227,1.3941675466170234
322,1647615979.8991976,1.4000427259132666
323,1647615979.9036434,1.4075429548020875
324,1647615979.9080892,1.4174182561723685
325,1647615979.9125333,1.4270435499130223
326,1647615979.916977,1.4522943205053866
327,1647615979.921451,1.4694198431348613
328,1647615979.9258952,1.4875453962828455
329,1647615979.9304008,1.5050459303567616
330,1647615979.9348454,1.515796258430738
331,1647615979.9392917,1.5184213385418257
332,1647615979.943736,1.5192963652455214
333,1647615979.9481814,1.5196713766899625
334,1647615979.9526243,1.51992138431959
335,1647615979.9570732,1.520296395764031
336,1647615979.9615169,1.5204213995788447
337,1647615979.965995,1.5205464033936582
338,1647615979.9704394,1.5205464033936582
339,1647615979.9748864,1.5206714072084722
340,1647615979.9793303,1.5206714072084722
341,1647615979.983775,1.5207964110232857
342,1647615979.9882188,1.5207964110232857
343,1647615979.9926672,1.5207964110232857
344,1647615979.9971418,1.5209214148380994
345,1647615980.0015862,1.5209214148380994
346,1647615980.006031,1.5209214148380994
347,1647615980.0104787,1.5209214148380994
348,1647615980.014924,1.5210464186529131
349,1647615980.0193715,1.5210464186529131
350,1647615980.0238175,1.5210464186529131
351,1647615980.0282629,1.5210464186529131
352,1647615980.032774,1.5210464186529131
353,1647615980.037221,1.5211714224677266
354,1647615980.041665,1.5211714224677266
355,1647615980.0461118,1.5211714224677266
356,1647615980.0505564,1.5212964262825404
357,1647615980.0550015,1.5212964262825404
358,1647615980.059439,1.5212964262825404
359,1647615980.0639155,1.5212964262825404
360,1647615980.0683658,1.5212964262825404
361,1647615980.0728135,1.5212964262825404
362,1647615980.0772588,1.5212964262825404
363,1647615980.0817053,1.5212964262825404
364,1647615980.0861506,1.5214214300973539
365,1647615980.0905948,1.5212964262825404
366,1647615980.09504,1.5212964262825404
367,1647615980.099488,1.5212964262825404
368,1647615980.1039338,1.5212964262825404
369,1647615980.108408,1.5212964262825404
370,1647615980.1128519,1.5212964262825404
371,1647615980.1172967,1.5214214300973539
372,1647615980.1217425,1.5212964262825404
373,1647615980.1261868,1.5214214300973539
374,1647615980.1306295,1.5214214300973539
375,1647615980.1351452,1.5214214300973539
376,1647615980.1395915,1.5214214300973539
377,1647615980.1440368,1.5214214300973539
378,1647615980.1484802,1.5214214300973539
379,1647615980.1529255,1.5214214300973539
380,1647615980.1573722,1.5214214300973539
381,1647615980.1618154,1.5214214300973539
382,1647615980.1662602,1.5214214300973539
383,1647615980.1707065,1.5214214300973539
384,1647615980.175156,1.5215464339121678
385,1647615980.1796007,1.5215464339121678
386,1647615980.1840434,1.5215464339121678
387,1647615980.1885242,1.5215464339121678
388,1647615980.192977,1.5215464339121678
389,1647615980.1974227,1.5214214300973539
390,1647615980.2018967,1.5215464339121678
391,1647615980.206342,1.5215464339121678
392,1647615980.210822,1.5215464339121678
393,1647615980.215273,1.5215464339121678
394,1647615980.2197192,1.5215464339121678
395,1647615980.2241883,1.5215464339121678
396,1647615980.2286625,1.5215464339121678
397,1647615980.2331095,1.5215464339121678
398,1647615980.237556,1.5215464339121678
399,1647615980.2419999,1.5215464339121678
400,1647615980.2464468,1.5215464339121678
401,1647615980.2508917,1.5215464339121678
402,1647615980.2553396,1.5215464339121678
403,1647615980.2598407,1.5215464339121678
404,1647615980.2642882,1.5215464339121678
405,1647615980.268725,1.5215464339121678
406,1647615980.273168,1.5215464339121678
407,1647615980.2776182,1.5215464339121678
408,1647615980.2820652,1.5215464339121678
409,1647615980.2865098,1.5215464339121678
410,1647615980.2909539,1.5215464339121678
411,1647615980.295491,1.5216714377269813
412,1647615980.2999375,1.5216714377269813
413,1647615980.3043826,1.5215464339121678
414,1647615980.3088279,1.5215464339121678
415,1647615980.313272,1.5215464339121678
416,1647615980.317718,1.5215464339121678
417,1647615980.3221622,1.5215464339121678
418,1647615980.3266063,1.5215464339121678
419,1647615980.3310544,1.5216714377269813
420,1647615980.3354993,1.5215464339121678
421,1647615980.339944,1.5215464339121678
422,1647615980.3443866,1.5216714377269813
423,1647615980.3488307,1.5215464339121678
424,1647615980.3532777,1.5216714377269813
425,1647615980.3577251,1.5215464339121678
426,1647615980.3621707,1.5215464339121678
427,1647615980.3666131,1.5215464339121678
428,1647615980.3710592,1.5215464339121678
429,1647615980.3755033,1.5215464339121678
430,1647615980.379977,1.5216714377269813
431,1647615980.3844204,1.5215464339121678
432,1647615980.388863,1.5215464339121678
433,1647615980.3933072,1.5215464339121678
434,1647615980.3977785,1.5215464339121678
435,1647615980.4022202,1.5216714377269813
436,1647615980.4066627,1.5216714377269813
437,1647615980.4111102,1.5215464339121678
438,1647615980.4155521,1.5215464339121678
439,1647615980.4200292,1.5215464339121678
440,1647615980.4244723,1.5215464339121678
441,1647615980.4289174,1.5216714377269813
442,1647615980.43336,1.5215464339121678
443,1647615980.4378316,1.5216714377269813
444,1647615980.4423265,1.5216714377269813
445,1647615980.446771,1.5216714377269813
446,1647615980.4512126,1.5215464339121678
447,1647615980.455711,1.5216714377269813
448,1647615980.4601538,1.5216714377269813
449,1647615980.4645977,1.5216714377269813
450,1647615980.4690921,1.5216714377269813
451,1647615980.4735487,1.5216714377269813
452,1647615980.4779873,1.5216714377269813
453,1647615980.482432,1.5215464339121678
454,1647615980.4868832,1.5215464339121678
455,1647615980.4913292,1.5216714377269813
456,1647615980.495775,1.5216714377269813
457,1647615980.5002213,1.5216714377269813
458,1647615980.5046647,1.5215464339121678
459,1647615980.5091088,1.5216714377269813
460,1647615980.5135536,1.5216714377269813
461,1647615980.5179987,1.5216714377269813
462,1647615980.5224411,1.5216714377269813
463,1647615980.5268903,1.5216714377269813
464,1647615980.5313344,1.5216714377269813
465,1647615980.5358117,1.5216714377269813
466,1647615980.5402553,1.5216714377269813
467,1647615980.544757,1.5216714377269813
468,1647615980.5492015,1.5216714377269813
469,1647615980.553647,1.5216714377269813
470,1647615980.5580912,1.5216714377269813
471,1647615980.5625336,1.5216714377269813
472,1647615980.5669808,1.5216714377269813
473,1647615980.5714295,1.5216714377269813
474,1647615980.5759027,1.5216714377269813
475,1647615980.5803456,1.5216714377269813
