,Time (s),Signal (V)
0,1649627406.2918603,-0.007625232703634755
1,1649627406.3047638,-0.00750022888882107
2,1649627406.3090599,-0.00750022888882107
3,1649627406.3133132,-0.007375225074007386
4,1649627406.3175614,-0.0072502212591937015
5,1649627406.3218126,-0.007125217444380017
6,1649627406.3260512,-0.007125217444380017
7,1649627406.3302932,-0.0072502212591937015
8,1649627406.334532,-0.007375225074007386
9,1649627406.338776,-0.00750022888882107
10,1649627406.3430147,-0.00750022888882107
11,1649627406.347258,-0.007625232703634755
12,1649627406.3515005,-0.007750236518448439
13,1649627406.3557398,-0.007750236518448439
14,1649627406.3600028,-0.007750236518448439
15,1649627406.364252,-0.00750022888882107
16,1649627406.368493,-0.00750022888882107
17,1649627406.3727312,-0.007375225074007386
18,1649627406.3769698,-0.007375225074007386
19,1649627406.3812087,-0.0072502212591937015
20,1649627406.3854456,-0.0072502212591937015
21,1649627406.3896928,-0.00750022888882107
22,1649627406.3939526,-0.007125217444380017
23,1649627406.3982031,-0.00500015259254738
24,1649627406.4024508,0.0011250343333231605
25,1649627406.406712,-0.007375225074007386
26,1649627406.410965,-0.0072502212591937015
27,1649627406.4152138,-0.0072502212591937015
28,1649627406.4194598,-0.007125217444380017
29,1649627406.423712,-0.006750205999938963
30,1649627406.4279659,-0.006750205999938963
31,1649627406.432213,-0.006625202185125278
32,1649627406.4364622,-0.006750205999938963
33,1649627406.440709,-0.007000213629566332
34,1649627406.4449549,-0.0072502212591937015
35,1649627406.4492047,-0.0072502212591937015
36,1649627406.4534519,-0.007125217444380017
37,1649627406.4576995,-0.0072502212591937015
38,1649627406.4619436,-0.00750022888882107
39,1649627406.4661903,-0.00750022888882107
40,1649627406.4704385,-0.007000213629566332
41,1649627406.474686,-0.006750205999938963
42,1649627406.4789333,-0.006625202185125278
43,1649627406.4831784,-0.006625202185125278
44,1649627406.4874253,-0.006750205999938963
45,1649627406.4916732,-0.007125217444380017
46,1649627406.4959195,-0.0072502212591937015
47,1649627406.5001667,-0.007000213629566332
48,1649627406.504415,-0.0072502212591937015
49,1649627406.508662,-0.007125217444380017
50,1649627406.5129037,-0.007375225074007386
51,1649627406.5171456,-0.007125217444380017
52,1649627406.5213945,-0.007000213629566332
53,1649627406.525638,-0.007000213629566332
54,1649627406.5298817,-0.0068752098147526475
55,1649627406.5341287,-0.0068752098147526475
56,1649627406.5383708,-0.006750205999938963
57,1649627406.5426133,-0.006750205999938963
58,1649627406.5468583,-0.006750205999938963
59,1649627406.5511038,-0.006750205999938963
60,1649627406.555351,-0.006750205999938963
61,1649627406.5595925,-0.006750205999938963
62,1649627406.5638342,-0.0068752098147526475
63,1649627406.5680742,-0.006625202185125278
64,1649627406.5723183,-0.0068752098147526475
65,1649627406.5765615,-0.006750205999938963
66,1649627406.5808053,-0.0068752098147526475
67,1649627406.5850503,-0.0068752098147526475
68,1649627406.5892918,-0.0068752098147526475
69,1649627406.5935354,-0.0068752098147526475
70,1649627406.5977774,-0.007125217444380017
71,1649627406.6020231,-0.007000213629566332
72,1649627406.6062663,-0.007000213629566332
73,1649627406.6105125,-0.007125217444380017
74,1649627406.6147578,-0.007125217444380017
75,1649627406.619004,-0.007000213629566332
76,1649627406.6232476,-0.007000213629566332
77,1649627406.6274931,-0.006750205999938963
78,1649627406.6317372,-0.0068752098147526475
79,1649627406.6359804,-0.006625202185125278
80,1649627406.6402252,-0.006750205999938963
81,1649627406.6444724,-0.006750205999938963
82,1649627406.6487172,-0.006750205999938963
83,1649627406.65296,-0.007000213629566332
84,1649627406.657203,-0.007000213629566332
85,1649627406.6614473,-0.007125217444380017
86,1649627406.6656914,-0.007000213629566332
87,1649627406.6699324,-0.007125217444380017
88,1649627406.674177,-0.006750205999938963
89,1649627406.6784194,-0.0068752098147526475
90,1649627406.68266,-0.0068752098147526475
91,1649627406.6869044,-0.006625202185125278
92,1649627406.6911452,-0.006750205999938963
93,1649627406.6953876,-0.006625202185125278
94,1649627406.69963,-0.006625202185125278
95,1649627406.7038777,-0.006750205999938963
96,1649627406.7081213,-0.0068752098147526475
97,1649627406.7123654,-0.006750205999938963
98,1649627406.7166092,-0.007000213629566332
99,1649627406.720851,-0.006750205999938963
100,1649627406.7250936,-0.0068752098147526475
101,1649627406.7293403,-0.0068752098147526475
102,1649627406.7335835,-0.0068752098147526475
103,1649627406.7378273,-0.006750205999938963
104,1649627406.7420712,-0.006625202185125278
105,1649627406.7463143,-0.006625202185125278
106,1649627406.7505577,-0.006750205999938963
107,1649627406.7548037,-0.006750205999938963
108,1649627406.759124,-0.007000213629566332
109,1649627406.7634096,-0.007125217444380017
110,1649627406.7678034,-0.007125217444380017
111,1649627406.772171,-0.007000213629566332
112,1649627406.7765408,-0.007000213629566332
113,1649627406.7809076,-0.007125217444380017
114,1649627406.7852762,-0.007125217444380017
115,1649627406.7896416,-0.007125217444380017
116,1649627406.794009,-0.007000213629566332
117,1649627406.798371,-0.007000213629566332
118,1649627406.8027344,-0.007000213629566332
119,1649627406.8071017,-0.007125217444380017
120,1649627406.8114624,-0.0072502212591937015
121,1649627406.8158252,-0.007000213629566332
122,1649627406.8201888,-0.0072502212591937015
123,1649627406.8245537,-0.007125217444380017
124,1649627406.828916,-0.0068752098147526475
125,1649627406.8332853,-0.0068752098147526475
126,1649627406.8376691,-0.0068752098147526475
127,1649627406.8420393,-0.0068752098147526475
128,1649627406.8464308,-0.0068752098147526475
129,1649627406.8507974,-0.007000213629566332
130,1649627406.8551629,-0.006625202185125278
131,1649627406.8596318,-0.0068752098147526475
132,1649627406.8640249,-0.007000213629566332
133,1649627406.8684866,-0.0072502212591937015
134,1649627406.8729415,-0.0072502212591937015
135,1649627406.8773973,-0.007125217444380017
136,1649627406.8818488,-0.007375225074007386
137,1649627406.8863106,-0.007000213629566332
138,1649627406.890764,-0.007000213629566332
139,1649627406.895219,-0.007000213629566332
140,1649627406.8996692,-0.007000213629566332
141,1649627406.9041219,-0.007000213629566332
142,1649627406.9085708,-0.007125217444380017
143,1649627406.9130187,-0.007000213629566332
144,1649627406.917469,-0.0072502212591937015
145,1649627406.9219222,-0.007375225074007386
146,1649627406.9263737,-0.007375225074007386
147,1649627406.9308262,-0.0072502212591937015
148,1649627406.9352806,-0.0072502212591937015
149,1649627406.939741,-0.0072502212591937015
150,1649627406.9441981,-0.007125217444380017
151,1649627406.948655,-0.0072502212591937015
152,1649627406.9531085,-0.007125217444380017
153,1649627406.9576125,-0.007000213629566332
154,1649627406.9620686,-0.007125217444380017
155,1649627406.9665296,-0.0072502212591937015
156,1649627406.9709857,-0.00750022888882107
157,1649627406.9754407,-0.007625232703634755
158,1649627406.9798963,-0.0072502212591937015
159,1649627406.9843476,-0.007125217444380017
160,1649627406.9888043,-0.008250251777703178
161,1649627406.9932551,-0.0068752098147526475
162,1649627406.9977045,-0.009375286111026337
163,1649627407.0021586,-0.00612518692587054
164,1649627407.0066085,-0.008250251777703178
165,1649627407.0110633,-0.007875240333262123
166,1649627407.015523,-0.007000213629566332
167,1649627407.019982,-0.0060001831110568565
168,1649627407.0244417,-0.006750205999938963
169,1649627407.028908,-0.008000244148075809
170,1649627407.0333607,-0.0072502212591937015
171,1649627407.0378966,-0.008375255592516862
172,1649627407.0423496,-0.007625232703634755
173,1649627407.046804,-0.0072502212591937015
174,1649627407.0512643,-0.007625232703634755
175,1649627407.0557203,-0.0072502212591937015
176,1649627407.0601723,-0.007000213629566332
177,1649627407.0646293,-0.006625202185125278
178,1649627407.0690832,-0.00612518692587054
179,1649627407.0735338,-0.006625202185125278
180,1649627407.0779953,-0.008500259407330547
181,1649627407.0824466,-0.009625293740653707
182,1649627407.086897,-0.009625293740653707
183,1649627407.0913544,-0.009125278481398968
184,1649627407.0958114,-0.008500259407330547
185,1649627407.100266,-0.00750022888882107
186,1649627407.1047192,-0.006500198370311594
187,1649627407.1091747,-0.005500167851802118
188,1649627407.113654,-0.005500167851802118
189,1649627407.1181157,-0.0060001831110568565
190,1649627407.1225674,-0.007000213629566332
191,1649627407.1270216,-0.007625232703634755
192,1649627407.131472,-0.008125247962889492
193,1649627407.1359234,-0.008250251777703178
194,1649627407.1403773,-0.007750236518448439
195,1649627407.1448326,-0.007875240333262123
196,1649627407.1492853,-0.007375225074007386
197,1649627407.1537435,-0.008250251777703178
198,1649627407.158197,-0.008250251777703178
199,1649627407.1626801,-0.008500259407330547
200,1649627407.1671357,-0.0088752708517716
201,1649627407.1715875,-0.008500259407330547
202,1649627407.1760435,-0.008125247962889492
203,1649627407.180495,-0.007375225074007386
204,1649627407.1849482,-0.006250190740684225
205,1649627407.1894028,-0.004500137333292642
206,1649627407.1938558,-0.0038751182592242197
207,1649627407.1983106,-0.004500137333292642
208,1649627407.202763,-0.0038751182592242197
209,1649627407.2072127,-0.0033751029999694814
210,1649627407.2116652,-0.004875148777733695
211,1649627407.2161202,-0.0060001831110568565
212,1649627407.2205672,-0.007125217444380017
213,1649627407.2250226,-0.01225037385174108
214,1649627407.2294736,-0.011375347148045289
215,1649627407.2339299,-0.014000427259132664
216,1649627407.2383814,-0.013125400555436872
217,1649627407.2428317,-0.012375377666554766
218,1649627407.2472808,-0.010875331888790552
219,1649627407.251734,-0.008625263222144231
220,1649627407.256186,-0.008625263222144231
221,1649627407.2606442,-0.009250282296212652
222,1649627407.2650995,-0.006750205999938963
223,1649627407.2695563,-0.000250007629627369
224,1649627407.2740104,0.007125217444380017
225,1649627407.2784631,0.0033751029999694814
226,1649627407.2829137,-0.0016250495925778986
227,1649627407.2873933,-0.008250251777703178
228,1649627407.2918482,-0.012125370036927397
229,1649627407.2962995,-0.012375377666554766
230,1649627407.3007488,-0.01250038148136845
231,1649627407.3052075,-0.011000335703604236
232,1649627407.309663,-0.010875331888790552
233,1649627407.3141134,-0.009500289925840021
234,1649627407.318566,-0.009000274666585284
235,1649627407.3230188,-0.008375255592516862
236,1649627407.3274698,-0.008000244148075809
237,1649627407.331921,-0.007375225074007386
238,1649627407.3363686,-0.0068752098147526475
239,1649627407.340818,-0.0068752098147526475
240,1649627407.3452682,-0.006625202185125278
241,1649627407.3497229,-0.00637519455549791
242,1649627407.354175,-0.005500167851802118
243,1649627407.358631,-0.004500137333292642
244,1649627407.3630824,-0.004625141148106326
245,1649627407.3675358,-0.004875148777733695
246,1649627407.3719878,-0.004000122074037904
247,1649627407.3764408,-0.005250160222174749
248,1649627407.3808954,-0.0072502212591937015
249,1649627407.3853512,-0.007875240333262123
250,1649627407.3898015,-0.009125278481398968
251,1649627407.3942516,-0.008750267036957915
252,1649627407.3987064,-0.00750022888882107
253,1649627407.4031563,-0.0072502212591937015
254,1649627407.4076085,-0.0068752098147526475
255,1649627407.4120853,-0.007125217444380017
256,1649627407.4165409,-0.007125217444380017
257,1649627407.4209955,-0.006500198370311594
258,1649627407.4254673,-0.007125217444380017
259,1649627407.429929,-0.007000213629566332
260,1649627407.4343882,-0.0060001831110568565
261,1649627407.4388442,-0.006625202185125278
262,1649627407.4433007,-0.0056251716666158025
263,1649627407.4477973,-0.0056251716666158025
264,1649627407.452255,-0.006750205999938963
265,1649627407.4567063,-0.009375286111026337
266,1649627407.4611576,-0.00612518692587054
267,1649627407.4656541,-0.004625141148106326
268,1649627407.4701133,-0.00500015259254738
269,1649627407.4745834,-0.0026250801110873747
270,1649627407.4790406,-0.0031250953703421125
271,1649627407.4835043,-0.004500137333292642
272,1649627407.4879591,-0.0043751335184789575
273,1649627407.49242,-0.0038751182592242197
274,1649627407.4968803,-0.003500106814783166
275,1649627407.501333,-0.0036251106295968507
276,1649627407.5057883,-0.004000122074037904
277,1649627407.510241,-0.004125125888851589
278,1649627407.5146906,-0.0033751029999694814
279,1649627407.5191429,-0.00250007629627369
280,1649627407.5235941,-0.002250068666646321
281,1649627407.528089,-0.0023750724814600053
282,1649627407.5325382,-0.002250068666646321
283,1649627407.5369892,-0.0028750877407147436
284,1649627407.5414407,-0.004125125888851589
285,1649627407.5458896,-0.005750175481429487
286,1649627407.55034,-0.006250190740684225
287,1649627407.5547934,-0.007750236518448439
288,1649627407.5592446,-0.006750205999938963
289,1649627407.5637,-0.006750205999938963
290,1649627407.568154,-0.005125156407361065
291,1649627407.5726056,-0.004875148777733695
292,1649627407.5770562,-0.005500167851802118
293,1649627407.5815036,-0.005750175481429487
294,1649627407.585953,-0.0038751182592242197
295,1649627407.5904071,-0.006250190740684225
296,1649627407.5948644,-0.007625232703634755
297,1649627407.5993123,-0.008625263222144231
298,1649627407.6037598,-0.008250251777703178
299,1649627407.608219,-0.008250251777703178
300,1649627407.6126692,-0.008000244148075809
301,1649627407.617118,-0.00750022888882107
302,1649627407.6215699,-0.007625232703634755
303,1649627407.6260216,-0.007125217444380017
304,1649627407.6304727,-0.007125217444380017
305,1649627407.6349232,-0.007375225074007386
306,1649627407.6393735,-0.007375225074007386
307,1649627407.643832,-0.007875240333262123
308,1649627407.6482835,-0.008375255592516862
309,1649627407.6527355,-0.008250251777703178
310,1649627407.6571865,-0.008375255592516862
311,1649627407.6616364,-0.008500259407330547
312,1649627407.6661146,-0.009125278481398968
313,1649627407.6705651,-0.009375286111026337
314,1649627407.6750212,-0.009000274666585284
315,1649627407.679478,-0.007625232703634755
316,1649627407.6839318,-0.007000213629566332
317,1649627407.6883879,-0.007000213629566332
318,1649627407.6928382,-0.0068752098147526475
319,1649627407.697287,-0.007125217444380017
320,1649627407.7017374,-0.0072502212591937015
321,1649627407.706192,-0.007000213629566332
322,1649627407.7106457,-0.007125217444380017
323,1649627407.7150981,-0.008750267036957915
324,1649627407.7195518,-0.012625385296182135
325,1649627407.7240086,-0.009625293740653707
326,1649627407.7284613,-0.009500289925840021
327,1649627407.732911,-0.010625324259163182
328,1649627407.7373924,-0.009500289925840021
329,1649627407.7418475,-0.005750175481429487
330,1649627407.7463007,-0.002125064851832637
331,1649627407.750751,-0.0023750724814600053
332,1649627407.7552094,-0.005250160222174749
333,1649627407.7596624,-0.009375286111026337
334,1649627407.7641196,-0.011625354777672658
335,1649627407.7685733,-0.010875331888790552
336,1649627407.7730272,-0.01225037385174108
337,1649627407.7774768,-0.010125308999908446
338,1649627407.7819273,-0.0060001831110568565
339,1649627407.7863767,-0.004500137333292642
340,1649627407.79083,-0.005250160222174749
341,1649627407.7952816,-0.006250190740684225
342,1649627407.7997344,-0.007000213629566332
343,1649627407.8041866,-0.006250190740684225
344,1649627407.8086395,-0.006500198370311594
345,1649627407.813091,-0.006250190740684225
346,1649627407.817545,-0.0056251716666158025
347,1649627407.8219988,-0.004625141148106326
348,1649627407.8264506,-0.0038751182592242197
349,1649627407.8309026,-0.003500106814783166
350,1649627407.8353531,-0.0030000915555284282
351,1649627407.8398015,-0.0015000457777642141
352,1649627407.8442578,-0.002000061037018952
353,1649627407.8487093,-0.002000061037018952
354,1649627407.853154,-0.00612518692587054
355,1649627407.8576062,-0.006500198370311594
356,1649627407.8620675,-0.0068752098147526475
357,1649627407.8665502,-0.007625232703634755
358,1649627407.871003,-0.008125247962889492
359,1649627407.875456,-0.008625263222144231
360,1649627407.8799074,-0.007750236518448439
361,1649627407.884355,-0.0068752098147526475
362,1649627407.8888137,-0.007000213629566332
363,1649627407.893274,-0.007375225074007386
364,1649627407.8977284,-0.007625232703634755
365,1649627407.9021807,-0.007875240333262123
366,1649627407.9066286,-0.008000244148075809
367,1649627407.9110866,-0.008125247962889492
368,1649627407.91554,-0.008500259407330547
369,1649627407.919996,-0.008250251777703178
370,1649627407.9244523,-0.007750236518448439
371,1649627407.9289062,-0.006625202185125278
372,1649627407.9333596,-0.006250190740684225
373,1649627407.9378378,-0.0060001831110568565
374,1649627407.9422865,-0.005875179296243172
375,1649627407.9467394,-0.0056251716666158025
376,1649627407.9511936,-0.005500167851802118
377,1649627407.9556744,-0.005875179296243172
378,1649627407.9601297,-0.00612518692587054
379,1649627407.9645808,-0.00637519455549791
380,1649627407.9690351,-0.00637519455549791
381,1649627407.9734848,-0.0068752098147526475
382,1649627407.9780407,-0.008500259407330547
383,1649627407.9826555,-0.007625232703634755
384,1649627407.987122,-0.0068752098147526475
385,1649627407.9915788,-0.007750236518448439
386,1649627407.9960344,-0.00637519455549791
387,1649627408.0004935,-0.007375225074007386
388,1649627408.004953,-0.006625202185125278
389,1649627408.0094085,-0.006500198370311594
390,1649627408.0138679,-0.007125217444380017
391,1649627408.0183218,-0.006625202185125278
392,1649627408.0227716,-0.00637519455549791
393,1649627408.027222,-0.0060001831110568565
394,1649627408.0316727,-0.006500198370311594
395,1649627408.0361285,-0.00612518692587054
396,1649627408.0405798,-0.0060001831110568565
397,1649627408.0450351,-0.0060001831110568565
398,1649627408.0494876,-0.0060001831110568565
399,1649627408.0539439,-0.005875179296243172
400,1649627408.0583973,-0.00637519455549791
401,1649627408.0628505,-0.006625202185125278
402,1649627408.0673003,-0.006625202185125278
403,1649627408.0717516,-0.0068752098147526475
404,1649627408.0762084,-0.006750205999938963
405,1649627408.080659,-0.007375225074007386
406,1649627408.0851176,-0.007875240333262123
407,1649627408.089573,-0.0060001831110568565
408,1649627408.0940285,-0.005875179296243172
409,1649627408.0984812,-0.005125156407361065
410,1649627408.1029332,-0.005250160222174749
411,1649627408.1073852,-0.0056251716666158025
412,1649627408.1118402,-0.006500198370311594
413,1649627408.1162884,-0.006750205999938963
414,1649627408.1207368,-0.006750205999938963
415,1649627408.1251943,-0.006500198370311594
416,1649627408.1296477,-0.0060001831110568565
417,1649627408.1341035,-0.005375164036988434
418,1649627408.1385558,-0.005375164036988434
419,1649627408.1430058,-0.005750175481429487
420,1649627408.1474571,-0.006250190740684225
421,1649627408.151914,-0.006625202185125278
422,1649627408.1563652,-0.007000213629566332
423,1649627408.1608171,-0.007375225074007386
424,1649627408.1652722,-0.0072502212591937015
425,1649627408.169757,-0.0068752098147526475
426,1649627408.1742153,-0.006250190740684225
427,1649627408.178669,-0.00612518692587054
428,1649627408.1831176,-0.006250190740684225
429,1649627408.187599,-0.006250190740684225
430,1649627408.1920521,-0.00612518692587054
431,1649627408.1965077,-0.006625202185125278
432,1649627408.2009614,-0.006750205999938963
433,1649627408.2054195,-0.006500198370311594
434,1649627408.2098696,-0.006750205999938963
435,1649627408.214323,-0.00612518692587054
436,1649627408.2187734,-0.005875179296243172
437,1649627408.223226,-0.005750175481429487
438,1649627408.227674,-0.006250190740684225
439,1649627408.2321277,-0.00637519455549791
440,1649627408.2365756,-0.006500198370311594
441,1649627408.2410278,-0.006750205999938963
442,1649627408.2454813,-0.006750205999938963
443,1649627408.249935,-0.0068752098147526475
444,1649627408.2543957,-0.00637519455549791
445,1649627408.2588484,-0.0060001831110568565
446,1649627408.2633004,-0.005875179296243172
