,Time (s),Signal (V)
0,1649690834.370268,0.004500137333292642
1,1649690834.3831716,0.0043751335184789575
2,1649690834.3876414,0.004500137333292642
3,1649690834.3919935,0.0043751335184789575
4,1649690834.3963284,0.004500137333292642
5,1649690834.4006667,0.004500137333292642
6,1649690834.404997,0.004500137333292642
7,1649690834.4093368,0.004500137333292642
8,1649690834.4136624,0.0043751335184789575
9,1649690834.4179912,0.004500137333292642
10,1649690834.4223123,0.004500137333292642
11,1649690834.4266357,0.0043751335184789575
12,1649690834.4309466,0.0043751335184789575
13,1649690834.4352515,0.004500137333292642
14,1649690834.4395607,0.004500137333292642
15,1649690834.4438694,0.0043751335184789575
16,1649690834.448175,0.004500137333292642
17,1649690834.4524765,0.004500137333292642
18,1649690834.4567819,0.004500137333292642
19,1649690834.4610572,0.0043751335184789575
20,1649690834.465464,0.004500137333292642
21,1649690834.469839,0.004500137333292642
22,1649690834.4741602,0.0043751335184789575
23,1649690834.4785178,0.004500137333292642
24,1649690834.4828534,0.0043751335184789575
25,1649690834.4871843,0.004500137333292642
26,1649690834.4915383,0.0043751335184789575
27,1649690834.4958754,0.0043751335184789575
28,1649690834.5002215,0.004500137333292642
29,1649690834.504554,0.004500137333292642
30,1649690834.5088856,0.0043751335184789575
31,1649690834.5132136,0.0043751335184789575
32,1649690834.5175428,0.004500137333292642
33,1649690834.521873,0.004500137333292642
34,1649690834.5262022,0.0043751335184789575
35,1649690834.5305352,0.004500137333292642
36,1649690834.5348644,0.0043751335184789575
37,1649690834.5391936,0.004500137333292642
38,1649690834.5435233,0.0043751335184789575
39,1649690834.5478525,0.0043751335184789575
40,1649690834.55218,0.0043751335184789575
41,1649690834.5565064,0.004500137333292642
42,1649690834.5608418,0.0043751335184789575
43,1649690834.5651722,0.0043751335184789575
44,1649690834.5695014,0.004500137333292642
45,1649690834.5738306,0.004500137333292642
46,1649690834.5781589,0.0043751335184789575
47,1649690834.5824873,0.0043751335184789575
48,1649690834.5868127,0.004500137333292642
49,1649690834.5911446,0.0043751335184789575
50,1649690834.5954704,0.004500137333292642
51,1649690834.5997977,0.004500137333292642
52,1649690834.604119,0.004500137333292642
53,1649690834.6084492,0.004500137333292642
54,1649690834.6127796,0.0043751335184789575
55,1649690834.617103,0.004500137333292642
56,1649690834.6214316,0.004500137333292642
57,1649690834.6257577,0.0043751335184789575
58,1649690834.6300895,0.004500137333292642
59,1649690834.6344185,0.004500137333292642
60,1649690834.6387496,0.0043751335184789575
61,1649690834.6430745,0.0043751335184789575
62,1649690834.6473968,0.0043751335184789575
63,1649690834.6517258,0.004500137333292642
64,1649690834.6560533,0.0043751335184789575
65,1649690834.6603823,0.0043751335184789575
66,1649690834.6647096,0.004500137333292642
67,1649690834.669038,0.004500137333292642
68,1649690834.67338,0.0043751335184789575
69,1649690834.677723,0.004500137333292642
70,1649690834.6820476,0.0043751335184789575
71,1649690834.686371,0.004500137333292642
72,1649690834.690698,0.0043751335184789575
73,1649690834.6950233,0.0043751335184789575
74,1649690834.699351,0.004500137333292642
75,1649690834.7036812,0.004500137333292642
76,1649690834.7080138,0.0043751335184789575
77,1649690834.712338,0.004500137333292642
78,1649690834.716662,0.004500137333292642
79,1649690834.7209911,0.004500137333292642
80,1649690834.7253177,0.004500137333292642
81,1649690834.7296486,0.0043751335184789575
82,1649690834.7339723,0.0043751335184789575
83,1649690834.7383037,0.004500137333292642
84,1649690834.7426288,0.0043751335184789575
85,1649690834.746953,0.004500137333292642
86,1649690834.7512794,0.004500137333292642
87,1649690834.7556036,0.0043751335184789575
88,1649690834.7599308,0.0043751335184789575
89,1649690834.764257,0.004500137333292642
90,1649690834.768586,0.004500137333292642
91,1649690834.7729156,0.004500137333292642
92,1649690834.7772555,0.0043751335184789575
93,1649690834.7815828,0.0043751335184789575
94,1649690834.7859077,0.004625141148106326
95,1649690834.7902331,0.004500137333292642
96,1649690834.7945647,0.0043751335184789575
97,1649690834.7988904,0.004500137333292642
98,1649690834.8032131,0.004500137333292642
99,1649690834.8075407,0.0043751335184789575
100,1649690834.8118682,0.0043751335184789575
101,1649690834.8161976,0.0043751335184789575
102,1649690834.8205268,0.004500137333292642
103,1649690834.8248508,0.004500137333292642
104,1649690834.8291786,0.004500137333292642
105,1649690834.8335035,0.004500137333292642
106,1649690834.837831,0.004500137333292642
107,1649690834.842155,0.0043751335184789575
108,1649690834.8464773,0.004500137333292642
109,1649690834.8508818,0.0043751335184789575
110,1649690834.8552523,0.004500137333292642
111,1649690834.8597686,0.0043751335184789575
112,1649690834.864274,0.004500137333292642
113,1649690834.8687835,0.004500137333292642
114,1649690834.8732882,0.004500137333292642
115,1649690834.8778365,0.0043751335184789575
116,1649690834.8823392,0.0043751335184789575
117,1649690834.8868434,0.004500137333292642
118,1649690834.8913512,0.0043751335184789575
119,1649690834.8958502,0.004500137333292642
120,1649690834.9003544,0.004625141148106326
121,1649690834.9048576,0.004500137333292642
122,1649690834.9093614,0.0043751335184789575
123,1649690834.9138649,0.0043751335184789575
124,1649690834.9183729,0.0043751335184789575
125,1649690834.9228735,0.004500137333292642
126,1649690834.9273736,0.0043751335184789575
127,1649690834.9319074,0.004500137333292642
128,1649690834.936443,0.004500137333292642
129,1649690834.940955,0.0043751335184789575
130,1649690834.9454618,0.0043751335184789575
131,1649690834.9499753,0.004500137333292642
132,1649690834.9546273,0.004500137333292642
133,1649690834.9591756,0.0043751335184789575
134,1649690834.9638226,0.0043751335184789575
135,1649690834.968457,0.004500137333292642
136,1649690834.9730887,0.0043751335184789575
137,1649690834.9777224,0.0043751335184789575
138,1649690834.98236,0.004500137333292642
139,1649690834.9869912,0.004500137333292642
140,1649690834.9916232,0.0043751335184789575
141,1649690834.9962504,0.0043751335184789575
142,1649690835.0008821,0.004500137333292642
143,1649690835.0055087,0.004500137333292642
144,1649690835.010136,0.0043751335184789575
145,1649690835.014768,0.0043751335184789575
146,1649690835.0193996,0.004500137333292642
147,1649690835.0240304,0.0043751335184789575
148,1649690835.0286613,0.0043751335184789575
149,1649690835.0332918,0.004500137333292642
150,1649690835.037973,0.0043751335184789575
151,1649690835.0426042,0.0043751335184789575
152,1649690835.0472295,0.0043751335184789575
153,1649690835.051858,0.0043751335184789575
154,1649690835.0565112,0.0043751335184789575
155,1649690835.0611467,0.0043751335184789575
156,1649690835.06577,0.004500137333292642
157,1649690835.0703976,0.004500137333292642
158,1649690835.075031,0.0043751335184789575
159,1649690835.079661,0.004500137333292642
160,1649690835.0842848,0.004500137333292642
161,1649690835.0889084,0.004500137333292642
162,1649690835.093538,0.0043751335184789575
163,1649690835.0981634,0.0043751335184789575
164,1649690835.1027868,0.004500137333292642
165,1649690835.1074145,0.004500137333292642
166,1649690835.112043,0.0043751335184789575
167,1649690835.1166716,0.004500137333292642
168,1649690835.1213014,0.004500137333292642
169,1649690835.1259332,0.0043751335184789575
170,1649690835.1305673,0.0043751335184789575
171,1649690835.1352122,0.004500137333292642
172,1649690835.139843,0.0043751335184789575
173,1649690835.1444678,0.0043751335184789575
174,1649690835.1491046,0.0043751335184789575
175,1649690835.1537309,0.004500137333292642
176,1649690835.158387,0.0043751335184789575
177,1649690835.1630151,0.0043751335184789575
178,1649690835.1676435,0.004500137333292642
179,1649690835.1722727,0.004500137333292642
180,1649690835.1768982,0.0043751335184789575
181,1649690835.1815238,0.004500137333292642
182,1649690835.1861463,0.004500137333292642
183,1649690835.1907713,0.004500137333292642
184,1649690835.1954002,0.0043751335184789575
185,1649690835.2000291,0.004500137333292642
186,1649690835.2046592,0.004500137333292642
187,1649690835.20929,0.0043751335184789575
188,1649690835.2139125,0.004500137333292642
189,1649690835.2185621,0.004500137333292642
190,1649690835.2232533,0.004500137333292642
191,1649690835.2279809,0.0043751335184789575
192,1649690835.2324536,0.004500137333292642
193,1649690835.2369177,0.004500137333292642
194,1649690835.2413797,0.0043751335184789575
195,1649690835.2458386,0.0043751335184789575
196,1649690835.2502995,0.004500137333292642
197,1649690835.254765,0.004500137333292642
198,1649690835.259249,0.0043751335184789575
199,1649690835.2637112,0.0043751335184789575
200,1649690835.2681637,0.004500137333292642
201,1649690835.2726135,0.0043751335184789575
202,1649690835.277074,0.0043751335184789575
203,1649690835.2815259,0.004500137333292642
204,1649690835.2859766,0.004500137333292642
205,1649690835.2904248,0.0043751335184789575
206,1649690835.2948792,0.0043751335184789575
207,1649690835.29933,0.004500137333292642
208,1649690835.303782,0.004500137333292642
209,1649690835.3082273,0.0043751335184789575
210,1649690835.3126748,0.0043751335184789575
211,1649690835.3171217,0.004500137333292642
212,1649690835.3215773,0.0043751335184789575
213,1649690835.3260486,0.0043751335184789575
214,1649690835.3305395,0.0043751335184789575
215,1649690835.3350303,0.004500137333292642
216,1649690835.3395011,0.004500137333292642
217,1649690835.3439577,0.0043751335184789575
218,1649690835.3484075,0.0043751335184789575
219,1649690835.3528554,0.0043751335184789575
220,1649690835.3573022,0.0043751335184789575
221,1649690835.3617597,0.0043751335184789575
222,1649690835.3662348,0.0043751335184789575
223,1649690835.3707027,0.0043751335184789575
224,1649690835.37521,0.0043751335184789575
225,1649690835.3797138,0.0043751335184789575
226,1649690835.384199,0.004500137333292642
227,1649690835.3886762,0.0043751335184789575
228,1649690835.393179,0.0043751335184789575
229,1649690835.397667,0.004500137333292642
230,1649690835.4021273,0.004500137333292642
231,1649690835.4065948,0.004500137333292642
232,1649690835.4110563,0.0043751335184789575
233,1649690835.4155312,0.0043751335184789575
234,1649690835.420006,0.004500137333292642
235,1649690835.4244769,0.0043751335184789575
236,1649690835.4289818,0.004500137333292642
237,1649690835.433485,0.0043751335184789575
238,1649690835.4379816,0.0043751335184789575
239,1649690835.4424596,0.0043751335184789575
240,1649690835.4469447,0.004500137333292642
241,1649690835.4514012,0.004500137333292642
242,1649690835.455872,0.004500137333292642
243,1649690835.460374,0.0043751335184789575
244,1649690835.4648566,0.0043751335184789575
245,1649690835.4692502,0.004500137333292642
246,1649690835.473615,0.0043751335184789575
247,1649690835.4779775,0.004250129703665274
248,1649690835.4823375,0.0043751335184789575
249,1649690835.4867008,0.0043751335184789575
250,1649690835.491083,0.004250129703665274
251,1649690835.4954977,0.0043751335184789575
252,1649690835.499897,0.004250129703665274
253,1649690835.504266,0.004000122074037904
254,1649690835.5086305,0.0056251716666158025
255,1649690835.513017,0.005125156407361065
256,1649690835.5173833,0.0043751335184789575
257,1649690835.5217454,0.0036251106295968507
258,1649690835.5261068,0.0036251106295968507
259,1649690835.5304832,0.004125125888851589
260,1649690835.5348759,0.004500137333292642
261,1649690835.5392425,0.004125125888851589
262,1649690835.5436065,0.0043751335184789575
263,1649690835.5479715,0.004125125888851589
264,1649690835.5523303,0.004625141148106326
265,1649690835.5566895,0.004875148777733695
266,1649690835.5611627,0.0043751335184789575
267,1649690835.5655577,0.0033751029999694814
268,1649690835.5700178,0.0038751182592242197
269,1649690835.5744681,0.0043751335184789575
270,1649690835.578918,0.004500137333292642
271,1649690835.5834563,0.0043751335184789575
272,1649690835.5879126,0.004000122074037904
273,1649690835.59236,0.004000122074037904
274,1649690835.5968063,0.004000122074037904
275,1649690835.6012542,0.0038751182592242197
276,1649690835.6057024,0.004125125888851589
277,1649690835.6101525,0.004000122074037904
278,1649690835.6146002,0.004000122074037904
279,1649690835.6190503,0.004250129703665274
280,1649690835.6234975,0.004250129703665274
281,1649690835.6279428,0.004250129703665274
282,1649690835.6323862,0.004125125888851589
283,1649690835.636833,0.004250129703665274
284,1649690835.6412778,0.0043751335184789575
285,1649690835.645723,0.004125125888851589
286,1649690835.6501682,0.004125125888851589
287,1649690835.6546183,0.0031250953703421125
288,1649690835.659062,0.004125125888851589
289,1649690835.6635392,0.004625141148106326
290,1649690835.6679914,0.0043751335184789575
291,1649690835.672438,0.004250129703665274
292,1649690835.6768835,0.004250129703665274
293,1649690835.681327,0.0043751335184789575
294,1649690835.68577,0.0043751335184789575
295,1649690835.6902173,0.0043751335184789575
296,1649690835.6946626,0.0043751335184789575
297,1649690835.6991076,0.0043751335184789575
298,1649690835.7035546,0.0043751335184789575
299,1649690835.7080052,0.004250129703665274
300,1649690835.7124503,0.004250129703665274
301,1649690835.7168941,0.004250129703665274
302,1649690835.721345,0.0043751335184789575
303,1649690835.725799,0.0043751335184789575
304,1649690835.7302473,0.004750144962920011
305,1649690835.734695,0.004875148777733695
306,1649690835.7391438,0.0043751335184789575
307,1649690835.7435951,0.0043751335184789575
308,1649690835.7480402,0.005250160222174749
309,1649690835.752483,0.0056251716666158025
310,1649690835.756931,0.004625141148106326
311,1649690835.76138,0.0038751182592242197
312,1649690835.765964,0.004125125888851589
313,1649690835.7704334,0.004125125888851589
314,1649690835.7749498,0.004125125888851589
315,1649690835.779465,0.004125125888851589
316,1649690835.783978,0.0043751335184789575
317,1649690835.788489,0.004500137333292642
318,1649690835.793,0.0043751335184789575
319,1649690835.7975476,0.0043751335184789575
320,1649690835.8020613,0.004500137333292642
321,1649690835.806574,0.0043751335184789575
322,1649690835.8110876,0.004000122074037904
323,1649690835.8155978,0.004250129703665274
324,1649690835.8201113,0.004625141148106326
325,1649690835.8246229,0.004500137333292642
326,1649690835.8291342,0.0043751335184789575
327,1649690835.8336463,0.004500137333292642
328,1649690835.8381627,0.004625141148106326
329,1649690835.8427095,0.004500137333292642
330,1649690835.8472197,0.004625141148106326
331,1649690835.8517315,0.004625141148106326
332,1649690835.8562386,0.004625141148106326
333,1649690835.8607495,0.004500137333292642
334,1649690835.8652692,0.004500137333292642
335,1649690835.8697827,0.004500137333292642
336,1649690835.8742938,0.004250129703665274
337,1649690835.8787496,0.0043751335184789575
338,1649690835.883201,0.004250129703665274
339,1649690835.8876739,0.004125125888851589
340,1649690835.892127,0.0043751335184789575
341,1649690835.8965786,0.0043751335184789575
342,1649690835.9010248,0.004250129703665274
343,1649690835.9054725,0.004250129703665274
344,1649690835.9099205,0.004250129703665274
345,1649690835.91437,0.004625141148106326
346,1649690835.918817,0.004625141148106326
347,1649690835.923261,0.004500137333292642
348,1649690835.9277081,0.0043751335184789575
349,1649690835.932164,0.0043751335184789575
350,1649690835.9366124,0.0043751335184789575
351,1649690835.9410598,0.004500137333292642
352,1649690835.9455118,0.004500137333292642
353,1649690835.9499595,0.004500137333292642
354,1649690835.9544077,0.004625141148106326
355,1649690835.9588606,0.0043751335184789575
356,1649690835.9633079,0.004500137333292642
357,1649690835.9678113,0.004500137333292642
358,1649690835.9722996,0.004500137333292642
359,1649690835.976754,0.0043751335184789575
360,1649690835.981202,0.0043751335184789575
361,1649690835.985646,0.004500137333292642
362,1649690835.9900956,0.0043751335184789575
363,1649690835.994544,0.004250129703665274
364,1649690835.9989939,0.0043751335184789575
365,1649690836.0034451,0.0043751335184789575
366,1649690836.0078945,0.004250129703665274
367,1649690836.01234,0.004125125888851589
368,1649690836.016785,0.004250129703665274
369,1649690836.0212321,0.0043751335184789575
370,1649690836.025676,0.0043751335184789575
371,1649690836.0301254,0.0043751335184789575
372,1649690836.034576,0.004500137333292642
373,1649690836.039022,0.004500137333292642
374,1649690836.0434663,0.004500137333292642
375,1649690836.0479145,0.004500137333292642
376,1649690836.0523605,0.004625141148106326
377,1649690836.0568333,0.004500137333292642
378,1649690836.0612803,0.004500137333292642
379,1649690836.0657234,0.004500137333292642
380,1649690836.0701668,0.004500137333292642
381,1649690836.0747523,0.004500137333292642
382,1649690836.079335,0.004500137333292642
383,1649690836.08411,0.004500137333292642
384,1649690836.0886374,0.004500137333292642
385,1649690836.093151,0.0043751335184789575
386,1649690836.0976682,0.004500137333292642
387,1649690836.1021786,0.004500137333292642
388,1649690836.10669,0.004500137333292642
389,1649690836.111197,0.0043751335184789575
390,1649690836.115707,0.004500137333292642
391,1649690836.1202204,0.0043751335184789575
392,1649690836.1247303,0.0043751335184789575
393,1649690836.129241,0.004250129703665274
394,1649690836.1337566,0.0043751335184789575
395,1649690836.1382673,0.0043751335184789575
396,1649690836.1427777,0.0043751335184789575
397,1649690836.1472876,0.004500137333292642
398,1649690836.1518006,0.004500137333292642
399,1649690836.156354,0.0043751335184789575
400,1649690836.1608722,0.0043751335184789575
401,1649690836.1653895,0.004500137333292642
402,1649690836.1698992,0.004500137333292642
403,1649690836.1744106,0.004500137333292642
404,1649690836.178923,0.004500137333292642
405,1649690836.1834145,0.004625141148106326
406,1649690836.187873,0.004500137333292642
407,1649690836.192319,0.0043751335184789575
408,1649690836.196766,0.0043751335184789575
409,1649690836.2012115,0.0043751335184789575
410,1649690836.205659,0.0043751335184789575
411,1649690836.2101068,0.0043751335184789575
412,1649690836.2145529,0.004500137333292642
413,1649690836.2190008,0.004500137333292642
414,1649690836.2234468,0.004500137333292642
415,1649690836.2278955,0.004500137333292642
416,1649690836.2323432,0.004625141148106326
417,1649690836.2367914,0.004625141148106326
418,1649690836.2412379,0.004500137333292642
419,1649690836.2456846,0.0043751335184789575
420,1649690836.2501373,0.004500137333292642
421,1649690836.2545886,0.004500137333292642
422,1649690836.2590342,0.004250129703665274
423,1649690836.2634838,0.0043751335184789575
424,1649690836.2679355,0.0043751335184789575
425,1649690836.2723851,0.0043751335184789575
426,1649690836.2769678,0.0043751335184789575
427,1649690836.2814415,0.0043751335184789575
428,1649690836.2859612,0.004500137333292642
429,1649690836.2904732,0.004500137333292642
430,1649690836.295023,0.0043751335184789575
431,1649690836.29954,0.004625141148106326
432,1649690836.3040557,0.004500137333292642
433,1649690836.3085666,0.004500137333292642
434,1649690836.3130796,0.004500137333292642
435,1649690836.3175993,0.004500137333292642
436,1649690836.322112,0.004500137333292642
437,1649690836.3266237,0.004500137333292642
438,1649690836.3311327,0.004500137333292642
439,1649690836.3356426,0.004500137333292642
440,1649690836.340152,0.0043751335184789575
441,1649690836.3446703,0.0043751335184789575
442,1649690836.3491807,0.004500137333292642
443,1649690836.3536947,0.004500137333292642
444,1649690836.3582077,0.004500137333292642
445,1649690836.362717,0.004500137333292642
446,1649690836.367227,0.004500137333292642
447,1649690836.3717391,0.004125125888851589
448,1649690836.3762534,0.004500137333292642
449,1649690836.3807662,0.004500137333292642
450,1649690836.3852785,0.004625141148106326
451,1649690836.389738,0.004500137333292642
452,1649690836.394189,0.004500137333292642
453,1649690836.3986416,0.004500137333292642
454,1649690836.4030902,0.004625141148106326
