,Time (s),Signal (V)
0,1649710603.9806178,0.0016250495925778986
1,1649710603.9935381,0.0011250343333231605
2,1649710603.9978604,0.0008750267036957915
3,1649710604.002129,0.0008750267036957915
4,1649710604.0063875,0.0016250495925778986
5,1649710604.0106385,0.0016250495925778986
6,1649710604.0149994,0.000500015259254738
7,1649710604.0192523,0.000500015259254738
8,1649710604.0235007,0.0006250190740684225
9,1649710604.0277512,0.001250038148136845
10,1649710604.0320032,0.0008750267036957915
11,1649710604.036257,0.000250007629627369
12,1649710604.0404956,0.00037501144444105353
13,1649710604.0447388,0.001000030518509476
14,1649710604.0489986,0.000500015259254738
15,1649710604.0533361,-0.0036251106295968507
16,1649710604.057606,-0.003500106814783166
17,1649710604.0618663,-0.0001250038148136845
18,1649710604.066131,0.000500015259254738
19,1649710604.0703883,0.00037501144444105353
20,1649710604.0746431,0.0
21,1649710604.0788984,0.0
22,1649710604.0831501,0.000250007629627369
23,1649710604.0874045,0.00037501144444105353
24,1649710604.091664,0.00037501144444105353
25,1649710604.0959196,0.0001250038148136845
26,1649710604.100173,0.0001250038148136845
27,1649710604.1044436,0.00037501144444105353
28,1649710604.1087017,0.001000030518509476
29,1649710604.1129591,0.001000030518509476
30,1649710604.117211,-0.000250007629627369
31,1649710604.1214683,0.000500015259254738
32,1649710604.125722,0.0011250343333231605
33,1649710604.1299734,0.001000030518509476
34,1649710604.134227,0.000250007629627369
35,1649710604.1384785,0.0007500228888821071
36,1649710604.1427307,0.000250007629627369
37,1649710604.1469815,0.0015000457777642141
38,1649710604.151232,0.0007500228888821071
39,1649710604.1554816,0.000500015259254738
40,1649710604.1597316,0.0006250190740684225
41,1649710604.1639836,0.000500015259254738
42,1649710604.1682417,0.0007500228888821071
43,1649710604.172526,0.000500015259254738
44,1649710604.176775,-0.0001250038148136845
45,1649710604.1810334,-0.00037501144444105353
46,1649710604.185287,0.000500015259254738
47,1649710604.1895404,0.000500015259254738
48,1649710604.1937933,-0.00037501144444105353
49,1649710604.1980472,-0.00037501144444105353
50,1649710604.2023008,-0.0001250038148136845
51,1649710604.206555,0.0007500228888821071
52,1649710604.210811,0.000500015259254738
53,1649710604.215063,-0.00037501144444105353
54,1649710604.2194247,0.0001250038148136845
55,1649710604.2236805,0.00037501144444105353
56,1649710604.2279344,0.001000030518509476
57,1649710604.2321897,0.0006250190740684225
58,1649710604.236443,0.0
59,1649710604.2406993,0.00037501144444105353
60,1649710604.244951,0.0011250343333231605
61,1649710604.249204,0.000500015259254738
62,1649710604.2534566,0.0001250038148136845
63,1649710604.2577097,0.000250007629627369
64,1649710604.2619636,0.00037501144444105353
65,1649710604.2662163,0.0007500228888821071
66,1649710604.2704668,0.001000030518509476
67,1649710604.2747214,0.00037501144444105353
68,1649710604.2789774,-0.0001250038148136845
69,1649710604.28323,0.00037501144444105353
70,1649710604.2875884,0.0006250190740684225
71,1649710604.2918422,0.00037501144444105353
72,1649710604.2960925,0.0
73,1649710604.3003452,-0.00037501144444105353
74,1649710604.3046002,0.0
75,1649710604.3088508,0.0008750267036957915
76,1649710604.3131049,0.0001250038148136845
77,1649710604.3173559,-0.00037501144444105353
78,1649710604.3216097,-0.0001250038148136845
79,1649710604.325864,0.0007500228888821071
80,1649710604.3301153,0.0001250038148136845
81,1649710604.3343644,-0.00037501144444105353
82,1649710604.3386192,-0.0001250038148136845
83,1649710604.3428712,0.000250007629627369
84,1649710604.3471234,0.000500015259254738
85,1649710604.3513782,0.0001250038148136845
86,1649710604.3556273,-0.00037501144444105353
87,1649710604.3598757,-0.000250007629627369
88,1649710604.3641288,-0.000250007629627369
89,1649710604.3683887,0.00037501144444105353
90,1649710604.3726447,0.0001250038148136845
91,1649710604.3768966,-0.000500015259254738
92,1649710604.3811512,-0.0006250190740684225
93,1649710604.3854039,-0.0001250038148136845
94,1649710604.3896556,-0.000250007629627369
95,1649710604.3939066,-0.00037501144444105353
96,1649710604.3981555,-0.0008750267036957915
97,1649710604.402407,-0.000250007629627369
98,1649710604.4066603,-0.00037501144444105353
99,1649710604.4109154,0.0
100,1649710604.4151654,-0.000500015259254738
101,1649710604.4194164,-0.0001250038148136845
102,1649710604.4236672,0.0001250038148136845
103,1649710604.4279177,0.0008750267036957915
104,1649710604.4321675,0.000250007629627369
105,1649710604.436488,0.00037501144444105353
106,1649710604.4407804,-0.0008750267036957915
107,1649710604.445287,0.000250007629627369
108,1649710604.4498467,0.0001250038148136845
109,1649710604.4541974,0.0
110,1649710604.4585388,0.000250007629627369
111,1649710604.462881,0.0006250190740684225
112,1649710604.467226,-0.0006250190740684225
113,1649710604.4715755,-0.0001250038148136845
114,1649710604.4759202,-0.00037501144444105353
115,1649710604.480262,-0.000250007629627369
116,1649710604.4846046,0.0
117,1649710604.4889522,0.0006250190740684225
118,1649710604.493297,0.000500015259254738
119,1649710604.4976418,-0.000250007629627369
120,1649710604.5019896,-0.0001250038148136845
121,1649710604.5063336,0.0006250190740684225
122,1649710604.5107095,0.00037501144444105353
123,1649710604.5150611,-0.0006250190740684225
124,1649710604.5194042,-0.000500015259254738
125,1649710604.523748,-0.00037501144444105353
126,1649710604.528093,0.0
127,1649710604.5324433,-0.000250007629627369
128,1649710604.5369346,-0.001250038148136845
129,1649710604.5413234,-0.0006250190740684225
130,1649710604.5458052,0.0
131,1649710604.550279,0.0
132,1649710604.5547507,-0.000500015259254738
133,1649710604.559219,0.0
134,1649710604.5636954,0.00037501144444105353
135,1649710604.5681581,0.0007500228888821071
136,1649710604.5726311,0.000500015259254738
137,1649710604.577105,0.0001250038148136845
138,1649710604.5815752,0.0001250038148136845
139,1649710604.586041,0.0008750267036957915
140,1649710604.5905018,0.0007500228888821071
141,1649710604.5949934,0.0
142,1649710604.5994613,0.0
143,1649710604.603926,0.0006250190740684225
144,1649710604.6083906,0.001000030518509476
145,1649710604.6128602,0.0006250190740684225
146,1649710604.617325,-0.0001250038148136845
147,1649710604.6217973,0.0
148,1649710604.6262655,0.0006250190740684225
149,1649710604.630741,-0.0001250038148136845
150,1649710604.6352053,-0.00037501144444105353
151,1649710604.6396928,-0.00037501144444105353
152,1649710604.6441557,0.0
153,1649710604.648627,-0.000250007629627369
154,1649710604.6532927,-0.0001250038148136845
155,1649710604.6577601,-0.000500015259254738
156,1649710604.6622326,-0.0001250038148136845
157,1649710604.6666954,0.0001250038148136845
158,1649710604.6711695,0.0001250038148136845
159,1649710604.675631,-0.000250007629627369
160,1649710604.6800952,-0.0001250038148136845
161,1649710604.684557,0.0001250038148136845
162,1649710604.6890187,0.000500015259254738
163,1649710604.6934905,0.000500015259254738
164,1649710604.6979558,-0.000250007629627369
165,1649710604.7024252,0.000250007629627369
166,1649710604.7068841,0.0007500228888821071
167,1649710604.7113488,0.0001250038148136845
168,1649710604.7158108,-0.000500015259254738
169,1649710604.7202706,-0.00037501144444105353
170,1649710604.72474,0.0001250038148136845
171,1649710604.7292035,0.000500015259254738
172,1649710604.7336738,-0.00037501144444105353
173,1649710604.738139,-0.0006250190740684225
174,1649710604.7426386,0.000250007629627369
175,1649710604.7473004,-0.0007500228888821071
176,1649710604.7517788,-0.000250007629627369
177,1649710604.7562509,-0.0001250038148136845
178,1649710604.7608101,-0.0001250038148136845
179,1649710604.7654774,-0.0001250038148136845
180,1649710604.7700062,0.000500015259254738
181,1649710604.7745082,-0.000500015259254738
182,1649710604.7789767,-0.000500015259254738
183,1649710604.7834406,0.000250007629627369
184,1649710604.787903,0.000500015259254738
185,1649710604.7923667,0.0001250038148136845
186,1649710604.7968292,-0.00037501144444105353
187,1649710604.8013072,-0.000500015259254738
188,1649710604.8057764,0.000250007629627369
189,1649710604.8102403,0.000500015259254738
190,1649710604.8147018,-0.000500015259254738
191,1649710604.8191657,-0.00037501144444105353
192,1649710604.8236277,0.0001250038148136845
193,1649710604.8282807,0.00037501144444105353
194,1649710604.8328202,-0.00037501144444105353
195,1649710604.8372831,-0.0007500228888821071
196,1649710604.8417473,-0.000500015259254738
197,1649710604.8462114,0.0
198,1649710604.850709,-0.0001250038148136845
199,1649710604.8555484,-0.0007500228888821071
200,1649710604.8600316,-0.0007500228888821071
201,1649710604.8644984,0.0
202,1649710604.868972,0.000250007629627369
203,1649710604.873442,0.0
204,1649710604.8779173,-0.0001250038148136845
205,1649710604.8823862,-0.0001250038148136845
206,1649710604.8868582,0.0008750267036957915
207,1649710604.8913262,0.0007500228888821071
208,1649710604.8957946,0.000250007629627369
209,1649710604.9002624,0.000500015259254738
210,1649710604.90473,0.001250038148136845
211,1649710604.9091928,0.0016250495925778986
212,1649710604.9136531,0.0007500228888821071
213,1649710604.9181235,0.0006250190740684225
214,1649710604.9225957,0.000500015259254738
215,1649710604.927065,0.0007500228888821071
216,1649710604.9315305,0.00037501144444105353
217,1649710604.935994,0.00037501144444105353
218,1649710604.9404612,0.000250007629627369
219,1649710604.9449506,0.0007500228888821071
220,1649710604.9494143,0.0007500228888821071
221,1649710604.953885,0.00037501144444105353
222,1649710604.9583442,0.00037501144444105353
223,1649710604.9628148,0.000250007629627369
224,1649710604.9672863,0.0006250190740684225
225,1649710604.9717615,0.00037501144444105353
226,1649710604.9762304,0.0001250038148136845
227,1649710604.9807262,0.000250007629627369
228,1649710604.9851987,0.001000030518509476
229,1649710604.9896896,0.001000030518509476
230,1649710604.994161,0.0007500228888821071
231,1649710604.9986262,0.00037501144444105353
232,1649710605.0030918,0.00037501144444105353
233,1649710605.0075564,0.0015000457777642141
234,1649710605.0120401,0.0008750267036957915
235,1649710605.016502,0.0006250190740684225
236,1649710605.0209713,0.0008750267036957915
237,1649710605.0254412,0.0015000457777642141
238,1649710605.0299098,0.001750053407391583
239,1649710605.0343802,-0.00037501144444105353
240,1649710605.0388496,0.0006250190740684225
241,1649710605.0433145,0.001000030518509476
242,1649710605.0477848,0.0001250038148136845
243,1649710605.0522585,0.00037501144444105353
244,1649710605.0567212,0.000250007629627369
245,1649710605.0611923,0.0007500228888821071
246,1649710605.0656571,0.001000030518509476
247,1649710605.0701132,0.001250038148136845
248,1649710605.07458,0.0007500228888821071
249,1649710605.0790517,0.000500015259254738
250,1649710605.0835214,0.0008750267036957915
251,1649710605.0879931,0.001000030518509476
252,1649710605.092459,0.00037501144444105353
253,1649710605.0969276,0.0001250038148136845
254,1649710605.101396,0.0
255,1649710605.1058977,0.0006250190740684225
256,1649710605.1103659,0.0006250190740684225
257,1649710605.1148708,0.0001250038148136845
258,1649710605.119345,-0.0001250038148136845
259,1649710605.1238182,0.0007500228888821071
260,1649710605.128281,0.0006250190740684225
261,1649710605.1327524,0.000250007629627369
262,1649710605.137217,0.0006250190740684225
263,1649710605.1418946,-0.0001250038148136845
264,1649710605.1463923,0.0008750267036957915
265,1649710605.150865,0.0007500228888821071
266,1649710605.1553328,0.00037501144444105353
267,1649710605.1598,0.0
268,1649710605.1642752,0.001000030518509476
269,1649710605.168771,0.000500015259254738
270,1649710605.1732416,0.0
271,1649710605.1777108,0.0
272,1649710605.1821811,-0.00037501144444105353
273,1649710605.1866517,0.00037501144444105353
274,1649710605.1911247,0.00037501144444105353
275,1649710605.1955988,-0.0001250038148136845
276,1649710605.2000675,-0.0007500228888821071
277,1649710605.2045395,0.00037501144444105353
278,1649710605.2090101,0.0001250038148136845
279,1649710605.2134798,-0.00037501144444105353
280,1649710605.2179513,-0.0006250190740684225
281,1649710605.2224245,-0.00037501144444105353
282,1649710605.2268991,0.0006250190740684225
283,1649710605.23137,0.0001250038148136845
284,1649710605.2358422,-0.000250007629627369
285,1649710605.2403097,-0.000500015259254738
286,1649710605.2447772,0.000250007629627369
287,1649710605.2492614,0.0007500228888821071
288,1649710605.2537313,0.000500015259254738
289,1649710605.2582057,-0.0013750419629505295
290,1649710605.2626767,-0.0008750267036957915
291,1649710605.2671485,0.00037501144444105353
292,1649710605.2716217,0.000500015259254738
293,1649710605.2767692,-0.00037501144444105353
294,1649710605.2848957,0.0008750267036957915
295,1649710605.2912843,0.0011250343333231605
296,1649710605.295965,0.000500015259254738
297,1649710605.3006003,0.000250007629627369
298,1649710605.3052392,0.0007500228888821071
299,1649710605.3097878,0.0
300,1649710605.3143764,-0.001250038148136845
301,1649710605.318986,-0.0008750267036957915
302,1649710605.3235962,-0.0007500228888821071
303,1649710605.3281744,-0.0001250038148136845
304,1649710605.3327084,-0.001250038148136845
305,1649710605.3372571,-0.001000030518509476
306,1649710605.3417935,-0.000250007629627369
307,1649710605.3463311,-0.000250007629627369
308,1649710605.3508875,-0.0006250190740684225
309,1649710605.3554053,-0.000500015259254738
310,1649710605.3597825,-0.00037501144444105353
311,1649710605.364184,-0.001000030518509476
312,1649710605.3685129,0.0001250038148136845
313,1649710605.3727815,-0.0006250190740684225
314,1649710605.377043,-0.000250007629627369
315,1649710605.3812895,-0.0001250038148136845
316,1649710605.3855422,0.0006250190740684225
317,1649710605.3897886,0.00037501144444105353
318,1649710605.3940368,-0.0001250038148136845
319,1649710605.3982844,-0.000250007629627369
320,1649710605.4025486,-0.000250007629627369
321,1649710605.4068298,0.0006250190740684225
322,1649710605.4110858,0.000250007629627369
323,1649710605.4153402,-0.00037501144444105353
324,1649710605.419587,-0.000500015259254738
325,1649710605.4238324,-0.000250007629627369
326,1649710605.4280758,0.000500015259254738
327,1649710605.432322,0.0001250038148136845
328,1649710605.4365728,-0.000500015259254738
329,1649710605.4408212,-0.0006250190740684225
330,1649710605.4450986,0.00037501144444105353
331,1649710605.4493487,-0.00037501144444105353
332,1649710605.453594,-0.0007500228888821071
333,1649710605.457838,-0.000500015259254738
334,1649710605.4620833,-0.000500015259254738
335,1649710605.4663315,0.000250007629627369
336,1649710605.4705746,0.00037501144444105353
337,1649710605.4748151,-0.0006250190740684225
338,1649710605.4791152,-0.0001250038148136845
339,1649710605.4834673,-0.000250007629627369
340,1649710605.4878192,0.0006250190740684225
341,1649710605.4921622,0.0006250190740684225
342,1649710605.4965096,0.0001250038148136845
343,1649710605.5008469,0.0
344,1649710605.5051894,0.0007500228888821071
345,1649710605.509529,0.000500015259254738
346,1649710605.513865,-0.00037501144444105353
347,1649710605.5181992,-0.000250007629627369
348,1649710605.522533,0.0
349,1649710605.5268698,0.000500015259254738
350,1649710605.5312052,0.0
351,1649710605.5355475,-0.0006250190740684225
352,1649710605.5398805,-0.000500015259254738
353,1649710605.5442119,-0.0001250038148136845
354,1649710605.5485513,0.00037501144444105353
355,1649710605.5528889,-0.00037501144444105353
356,1649710605.5572395,-0.000500015259254738
357,1649710605.5615788,-0.0006250190740684225
358,1649710605.5659158,-0.0001250038148136845
359,1649710605.5702512,0.0
360,1649710605.5745819,0.0001250038148136845
361,1649710605.5789168,-0.0006250190740684225
362,1649710605.5832522,0.0
363,1649710605.5875812,0.0007500228888821071
364,1649710605.5919104,0.001000030518509476
365,1649710605.596255,-0.000250007629627369
366,1649710605.6005936,-0.0001250038148136845
367,1649710605.6049495,0.0006250190740684225
368,1649710605.609289,0.000250007629627369
369,1649710605.613624,-0.0001250038148136845
370,1649710605.6179583,0.0
371,1649710605.6222904,0.00037501144444105353
372,1649710605.6266246,0.000500015259254738
373,1649710605.6309617,0.0
374,1649710605.635296,-0.0006250190740684225
375,1649710605.6396265,-0.000250007629627369
376,1649710605.6439557,-0.000250007629627369
377,1649710605.648309,0.0001250038148136845
378,1649710605.6526473,-0.0001250038148136845
379,1649710605.6569798,-0.000500015259254738
380,1649710605.6613142,-0.001250038148136845
381,1649710605.6656537,-0.0001250038148136845
382,1649710605.6700442,0.0
383,1649710605.674466,-0.00037501144444105353
384,1649710605.6788106,-0.00037501144444105353
385,1649710605.6831465,-0.00037501144444105353
386,1649710605.6874862,0.00037501144444105353
387,1649710605.6918213,0.000250007629627369
388,1649710605.6961565,-0.000500015259254738
389,1649710605.7004852,-0.000250007629627369
390,1649710605.704822,-0.000250007629627369
391,1649710605.7091537,0.000500015259254738
392,1649710605.7134852,-0.000500015259254738
393,1649710605.7178202,-0.00037501144444105353
394,1649710605.7221541,0.0001250038148136845
395,1649710605.7264893,0.0006250190740684225
396,1649710605.7308197,0.00037501144444105353
397,1649710605.735156,0.0
398,1649710605.739483,0.000250007629627369
399,1649710605.743814,0.00037501144444105353
400,1649710605.748153,0.0008750267036957915
401,1649710605.7524838,0.001000030518509476
402,1649710605.7568202,-0.000250007629627369
403,1649710605.7611556,0.0001250038148136845
404,1649710605.7654898,0.000250007629627369
405,1649710605.769822,0.000250007629627369
406,1649710605.7741535,-0.0006250190740684225
407,1649710605.778494,-0.000500015259254738
408,1649710605.7828455,-0.0008750267036957915
409,1649710605.7871823,-0.0001250038148136845
410,1649710605.7915182,-0.000500015259254738
411,1649710605.7958543,-0.0011250343333231605
412,1649710605.80019,-0.0011250343333231605
413,1649710605.80452,-0.0008750267036957915
414,1649710605.808855,-0.00037501144444105353
415,1649710605.8131855,-0.000500015259254738
416,1649710605.8175194,-0.001250038148136845
417,1649710605.821853,-0.0006250190740684225
418,1649710605.8261867,-0.0001250038148136845
419,1649710605.8305166,-0.00037501144444105353
420,1649710605.8348482,-0.0011250343333231605
421,1649710605.839185,-0.0006250190740684225
422,1649710605.843517,-0.0007500228888821071
423,1649710605.8478534,0.0
424,1649710605.8521886,-0.000500015259254738
425,1649710605.856522,-0.0007500228888821071
426,1649710605.860859,-0.0008750267036957915
427,1649710605.865196,-0.000250007629627369
428,1649710605.869527,0.0001250038148136845
429,1649710605.8738563,0.0
430,1649710605.878187,-0.0006250190740684225
431,1649710605.8825362,-0.000500015259254738
432,1649710605.8868766,-0.00037501144444105353
433,1649710605.8912115,-0.00037501144444105353
434,1649710605.8955472,-0.0011250343333231605
435,1649710605.8998802,-0.0013750419629505295
436,1649710605.9042118,-0.0008750267036957915
437,1649710605.9085455,-0.0001250038148136845
438,1649710605.9128776,-0.000500015259254738
439,1649710605.917213,-0.001250038148136845
440,1649710605.9215481,-0.0008750267036957915
441,1649710605.92588,-0.000250007629627369
442,1649710605.9302113,-0.0006250190740684225
443,1649710605.9345462,-0.0006250190740684225
444,1649710605.9388754,-0.000250007629627369
445,1649710605.9432054,0.000250007629627369
446,1649710605.9475327,0.00037501144444105353
447,1649710605.9518666,-0.000250007629627369
448,1649710605.9562185,0.0
449,1649710605.9605515,-0.00037501144444105353
450,1649710605.9649024,0.000250007629627369
451,1649710605.9692612,0.000250007629627369
452,1649710605.9735966,0.000250007629627369
453,1649710605.9779284,0.0
454,1649710605.9822662,0.000250007629627369
455,1649710605.9865983,0.00037501144444105353
456,1649710605.9909356,-0.0001250038148136845
457,1649710605.9952683,-0.00037501144444105353
458,1649710605.9995968,-0.000500015259254738
459,1649710606.0039308,0.000250007629627369
460,1649710606.0082614,0.0007500228888821071
